{
  "AcquisitionMatrixPE": 80,
  "AcquisitionNumber": 1,
  "AcquisitionTime": "20:30:25.777500",
  "BandwidthPerPixelPhaseEncode": 51.02,
  "BaseResolution": 80,
  "BodyPartExamined": "BRAIN",
  "ConsistencyInfo": "N4_VE11C_LATEST_20160120",
  "ConversionSoftware": "dcm2niix",
  "ConversionSoftwareVersion": "v1.0.20170923 (OpenJPEG build) GCC6.3.0",
  "DerivedVendorReportedEchoSpacing": 0.000490004,
  "DeviceSerialNumber": "66112",
  "DwellTime": 2.2e-06,
  "EchoTime": 0.025,
  "EchoTrainLength": 39,
  "EffectiveEchoSpacing": 0.000245002,
  "FlipAngle": 75,
  "ImageType": [
    "ORIGINAL",
    "PRIMARY",
    "FMRI",
    "NONE",
    "ND",
    "NORM",
    "MOSAIC"
],
  "InstitutionAddress": "Maynard_3_Hanover_NH_US_03755",
  "InstitutionName": "Dartmouth_College_-_PBS",
  "MagneticFieldStrength": 3,
  "Manufacturer": "Siemens",
  "ManufacturersModelName": "Prisma",
  "Modality": "MR",
  "ParallelReductionFactorInPlane": 2,
  "PartialFourier": 1,
  "PercentPhaseFOV": 100,
  "PhaseEncodingDirection": "j-",
  "PhaseEncodingSteps": 79,
  "PhaseResolution": 1,
  "ProcedureStepDescription": "Chang_Chang_1039_fnlpilot",
  "ProtocolName": "func_run-01_task-movie",
  "PulseSequenceDetails": "%SiemensSeq%_ep2d_bold",
  "ReceiveCoilActiveElements": "HEA;HEP",
  "ReceiveCoilName": "Head_32",
  "ReconMatrixPE": 80,
  "RepetitionTime": 2,
  "ScanOptions": "FS",
  "ScanningSequence": "EP",
  "SequenceName": "_epfid2d1_80",
  "SequenceVariant": "SK",
  "SeriesDescription": "func_run-01_task-movie",
  "SliceTiming": [0.99, 0, 1.04, 0.05, 1.09, 0.1, 1.14, 0.15, 1.19, 0.2, 1.2375, 0.2475, 1.2875, 0.2975, 1.3375, 0.3475, 1.3875, 0.3975, 1.4375, 0.4475, 1.485, 0.495, 1.535, 0.545, 1.585, 0.595, 1.635, 0.645, 1.685, 0.695, 1.7325, 0.7425, 1.7825, 0.7925, 1.8325, 0.8425, 1.8825, 0.8925, 1.9325, 0.9425],
  "SoftwareVersions": "syngo_MR_E11",
  "StationName": "AWP66112",
  "TaskName": "movie",
  "TotalReadoutTime": 0.0193552,
  "dcmmeta_affine": [
    [-2.999922275543213, -0.014136765152215958, -0.016310397535562515, 123.2986068725586],
    [-0.016029823571443558, 2.9773294925689697, 0.36776652932167053, -109.92169189453125],
    [-0.014454132877290249, -0.3678441345691681, 2.977328062057495, -23.896804809570312],
    [0.0, 0.0, 0.0, 1.0]
],
  "dcmmeta_reorient_transform": [
    [0.0, -1.0, 0.0, 79.0],
    [1.0, 0.0, 0.0, 0.0],
    [0.0, 0.0, 1.0, 0.0],
    [0.0, 0.0, 0.0, 1.0]
],
  "dcmmeta_shape": [80, 80, 40, 1369],
  "dcmmeta_slice_dim": 2,
  "dcmmeta_version": 0.6,
  "global": {
    "const": {
      "AccessionNumber": "A001081",
      "AcquisitionMatrix": [80, 0, 0, 80],
      "AngioFlag": "N",
      "BitsAllocated": 16,
      "BitsStored": 12,
      "BodyPartExamined": "BRAIN",
      "Columns": 560,
      "EchoNumbers": 1,
      "EchoTime": 25.0,
      "EchoTrainLength": 39,
      "FlipAngle": 75.0,
      "HighBit": 11,
      "ImageOrientationPatient": [0.99997411759858, 0.00534327458505, -0.0048180441721, -0.0047122551682, 0.99244316027773, 0.12261471473354],
      "ImagePositionPatient": [-838.77034448077, -843.6935675879, -137.77009560559],
      "ImageType": [
        "ORIGINAL",
        "PRIMARY",
        "FMRI",
        "NONE",
        "ND",
        "NORM",
        "MOSAIC"
],
      "ImagedNucleus": "1H",
      "ImagingFrequency": 123.252262,
      "InPlanePhaseEncodingDirection": "COL",
      "MRAcquisitionType": "2D",
      "MagneticFieldStrength": 3.0,
      "Manufacturer": "SIEMENS",
      "ManufacturerModelName": "Prisma",
      "Modality": "MR",
      "NumberOfAverages": 1.0,
      "NumberOfPhaseEncodingSteps": 79,
      "PercentPhaseFieldOfView": 100.0,
      "PercentSampling": 100.0,
      "PerformedProcedureStepStartTime": "201904.208000",
      "PhotometricInterpretation": "MONOCHROME2",
      "PixelBandwidth": 2840.0,
      "PixelRepresentation": 0,
      "PixelSpacing": [3.0, 3.0],
      "PositionReferenceIndicator": "",
      "ProtocolName": "func_run-01_task-movie",
      "RepetitionTime": 2000.0,
      "Rows": 560,
      "SAR": 0.0948466639159,
      "SamplesPerPixel": 1,
      "ScanOptions": "FS",
      "ScanningSequence": "EP",
      "SequenceName": "*epfid2d1_80",
      "SequenceVariant": "SK",
      "SeriesDescription": "func_run-01_task-movie",
      "SeriesNumber": 6,
      "SeriesTime": "203027.309000",
      "SliceLocation": -37.861731425337,
      "SliceThickness": 3.0,
      "SmallestImagePixelValue": 0,
      "SoftwareVersions": "syngo MR E11",
      "SpacingBetweenSlices": 3.0000000272965,
      "SpecificCharacterSet": "ISO_IR 100",
      "StudyID": "1",
      "StudyTime": "201904.139000",
      "TransmitCoilName": "Body",
      "VariableFlipAngleFlag": "N",
      "WindowCenterWidthExplanation": "Algo1",
      "dBdt": 0.0},
    "slices": {}
  },
  "time": {
    "samples": {
      "AcquisitionNumber": [1, 2, 3, 4, 5, 6, 7, 8, 9, 10, 11, 12, 13, 14, 15, 16, 17, 18, 19, 20, 21, 22, 23, 24, 25, 26, 27, 28, 29, 30, 31, 32, 33, 34, 35, 36, 37, 38, 39, 40, 41, 42, 43, 44, 45, 46, 47, 48, 49, 50, 51, 52, 53, 54, 55, 56, 57, 58, 59, 60, 61, 62, 63, 64, 65, 66, 67, 68, 69, 70, 71, 72, 73, 74, 75, 76, 77, 78, 79, 80, 81, 82, 83, 84, 85, 86, 87, 88, 89, 90, 91, 92, 93, 94, 95, 96, 97, 98, 99, 100, 101, 102, 103, 104, 105, 106, 107, 108, 109, 110, 111, 112, 113, 114, 115, 116, 117, 118, 119, 120, 121, 122, 123, 124, 125, 126, 127, 128, 129, 130, 131, 132, 133, 134, 135, 136, 137, 138, 139, 140, 141, 142, 143, 144, 145, 146, 147, 148, 149, 150, 151, 152, 153, 154, 155, 156, 157, 158, 159, 160, 161, 162, 163, 164, 165, 166, 167, 168, 169, 170, 171, 172, 173, 174, 175, 176, 177, 178, 179, 180, 181, 182, 183, 184, 185, 186, 187, 188, 189, 190, 191, 192, 193, 194, 195, 196, 197, 198, 199, 200, 201, 202, 203, 204, 205, 206, 207, 208, 209, 210, 211, 212, 213, 214, 215, 216, 217, 218, 219, 220, 221, 222, 223, 224, 225, 226, 227, 228, 229, 230, 231, 232, 233, 234, 235, 236, 237, 238, 239, 240, 241, 242, 243, 244, 245, 246, 247, 248, 249, 250, 251, 252, 253, 254, 255, 256, 257, 258, 259, 260, 261, 262, 263, 264, 265, 266, 267, 268, 269, 270, 271, 272, 273, 274, 275, 276, 277, 278, 279, 280, 281, 282, 283, 284, 285, 286, 287, 288, 289, 290, 291, 292, 293, 294, 295, 296, 297, 298, 299, 300, 301, 302, 303, 304, 305, 306, 307, 308, 309, 310, 311, 312, 313, 314, 315, 316, 317, 318, 319, 320, 321, 322, 323, 324, 325, 326, 327, 328, 329, 330, 331, 332, 333, 334, 335, 336, 337, 338, 339, 340, 341, 342, 343, 344, 345, 346, 347, 348, 349, 350, 351, 352, 353, 354, 355, 356, 357, 358, 359, 360, 361, 362, 363, 364, 365, 366, 367, 368, 369, 370, 371, 372, 373, 374, 375, 376, 377, 378, 379, 380, 381, 382, 383, 384, 385, 386, 387, 388, 389, 390, 391, 392, 393, 394, 395, 396, 397, 398, 399, 400, 401, 402, 403, 404, 405, 406, 407, 408, 409, 410, 411, 412, 413, 414, 415, 416, 417, 418, 419, 420, 421, 422, 423, 424, 425, 426, 427, 428, 429, 430, 431, 432, 433, 434, 435, 436, 437, 438, 439, 440, 441, 442, 443, 444, 445, 446, 447, 448, 449, 450, 451, 452, 453, 454, 455, 456, 457, 458, 459, 460, 461, 462, 463, 464, 465, 466, 467, 468, 469, 470, 471, 472, 473, 474, 475, 476, 477, 478, 479, 480, 481, 482, 483, 484, 485, 486, 487, 488, 489, 490, 491, 492, 493, 494, 495, 496, 497, 498, 499, 500, 501, 502, 503, 504, 505, 506, 507, 508, 509, 510, 511, 512, 513, 514, 515, 516, 517, 518, 519, 520, 521, 522, 523, 524, 525, 526, 527, 528, 529, 530, 531, 532, 533, 534, 535, 536, 537, 538, 539, 540, 541, 542, 543, 544, 545, 546, 547, 548, 549, 550, 551, 552, 553, 554, 555, 556, 557, 558, 559, 560, 561, 562, 563, 564, 565, 566, 567, 568, 569, 570, 571, 572, 573, 574, 575, 576, 577, 578, 579, 580, 581, 582, 583, 584, 585, 586, 587, 588, 589, 590, 591, 592, 593, 594, 595, 596, 597, 598, 599, 600, 601, 602, 603, 604, 605, 606, 607, 608, 609, 610, 611, 612, 613, 614, 615, 616, 617, 618, 619, 620, 621, 622, 623, 624, 625, 626, 627, 628, 629, 630, 631, 632, 633, 634, 635, 636, 637, 638, 639, 640, 641, 642, 643, 644, 645, 646, 647, 648, 649, 650, 651, 652, 653, 654, 655, 656, 657, 658, 659, 660, 661, 662, 663, 664, 665, 666, 667, 668, 669, 670, 671, 672, 673, 674, 675, 676, 677, 678, 679, 680, 681, 682, 683, 684, 685, 686, 687, 688, 689, 690, 691, 692, 693, 694, 695, 696, 697, 698, 699, 700, 701, 702, 703, 704, 705, 706, 707, 708, 709, 710, 711, 712, 713, 714, 715, 716, 717, 718, 719, 720, 721, 722, 723, 724, 725, 726, 727, 728, 729, 730, 731, 732, 733, 734, 735, 736, 737, 738, 739, 740, 741, 742, 743, 744, 745, 746, 747, 748, 749, 750, 751, 752, 753, 754, 755, 756, 757, 758, 759, 760, 761, 762, 763, 764, 765, 766, 767, 768, 769, 770, 771, 772, 773, 774, 775, 776, 777, 778, 779, 780, 781, 782, 783, 784, 785, 786, 787, 788, 789, 790, 791, 792, 793, 794, 795, 796, 797, 798, 799, 800, 801, 802, 803, 804, 805, 806, 807, 808, 809, 810, 811, 812, 813, 814, 815, 816, 817, 818, 819, 820, 821, 822, 823, 824, 825, 826, 827, 828, 829, 830, 831, 832, 833, 834, 835, 836, 837, 838, 839, 840, 841, 842, 843, 844, 845, 846, 847, 848, 849, 850, 851, 852, 853, 854, 855, 856, 857, 858, 859, 860, 861, 862, 863, 864, 865, 866, 867, 868, 869, 870, 871, 872, 873, 874, 875, 876, 877, 878, 879, 880, 881, 882, 883, 884, 885, 886, 887, 888, 889, 890, 891, 892, 893, 894, 895, 896, 897, 898, 899, 900, 901, 902, 903, 904, 905, 906, 907, 908, 909, 910, 911, 912, 913, 914, 915, 916, 917, 918, 919, 920, 921, 922, 923, 924, 925, 926, 927, 928, 929, 930, 931, 932, 933, 934, 935, 936, 937, 938, 939, 940, 941, 942, 943, 944, 945, 946, 947, 948, 949, 950, 951, 952, 953, 954, 955, 956, 957, 958, 959, 960, 961, 962, 963, 964, 965, 966, 967, 968, 969, 970, 971, 972, 973, 974, 975, 976, 977, 978, 979, 980, 981, 982, 983, 984, 985, 986, 987, 988, 989, 990, 991, 992, 993, 994, 995, 996, 997, 998, 999, 1000, 1001, 1002, 1003, 1004, 1005, 1006, 1007, 1008, 1009, 1010, 1011, 1012, 1013, 1014, 1015, 1016, 1017, 1018, 1019, 1020, 1021, 1022, 1023, 1024, 1025, 1026, 1027, 1028, 1029, 1030, 1031, 1032, 1033, 1034, 1035, 1036, 1037, 1038, 1039, 1040, 1041, 1042, 1043, 1044, 1045, 1046, 1047, 1048, 1049, 1050, 1051, 1052, 1053, 1054, 1055, 1056, 1057, 1058, 1059, 1060, 1061, 1062, 1063, 1064, 1065, 1066, 1067, 1068, 1069, 1070, 1071, 1072, 1073, 1074, 1075, 1076, 1077, 1078, 1079, 1080, 1081, 1082, 1083, 1084, 1085, 1086, 1087, 1088, 1089, 1090, 1091, 1092, 1093, 1094, 1095, 1096, 1097, 1098, 1099, 1100, 1101, 1102, 1103, 1104, 1105, 1106, 1107, 1108, 1109, 1110, 1111, 1112, 1113, 1114, 1115, 1116, 1117, 1118, 1119, 1120, 1121, 1122, 1123, 1124, 1125, 1126, 1127, 1128, 1129, 1130, 1131, 1132, 1133, 1134, 1135, 1136, 1137, 1138, 1139, 1140, 1141, 1142, 1143, 1144, 1145, 1146, 1147, 1148, 1149, 1150, 1151, 1152, 1153, 1154, 1155, 1156, 1157, 1158, 1159, 1160, 1161, 1162, 1163, 1164, 1165, 1166, 1167, 1168, 1169, 1170, 1171, 1172, 1173, 1174, 1175, 1176, 1177, 1178, 1179, 1180, 1181, 1182, 1183, 1184, 1185, 1186, 1187, 1188, 1189, 1190, 1191, 1192, 1193, 1194, 1195, 1196, 1197, 1198, 1199, 1200, 1201, 1202, 1203, 1204, 1205, 1206, 1207, 1208, 1209, 1210, 1211, 1212, 1213, 1214, 1215, 1216, 1217, 1218, 1219, 1220, 1221, 1222, 1223, 1224, 1225, 1226, 1227, 1228, 1229, 1230, 1231, 1232, 1233, 1234, 1235, 1236, 1237, 1238, 1239, 1240, 1241, 1242, 1243, 1244, 1245, 1246, 1247, 1248, 1249, 1250, 1251, 1252, 1253, 1254, 1255, 1256, 1257, 1258, 1259, 1260, 1261, 1262, 1263, 1264, 1265, 1266, 1267, 1268, 1269, 1270, 1271, 1272, 1273, 1274, 1275, 1276, 1277, 1278, 1279, 1280, 1281, 1282, 1283, 1284, 1285, 1286, 1287, 1288, 1289, 1290, 1291, 1292, 1293, 1294, 1295, 1296, 1297, 1298, 1299, 1300, 1301, 1302, 1303, 1304, 1305, 1306, 1307, 1308, 1309, 1310, 1311, 1312, 1313, 1314, 1315, 1316, 1317, 1318, 1319, 1320, 1321, 1322, 1323, 1324, 1325, 1326, 1327, 1328, 1329, 1330, 1331, 1332, 1333, 1334, 1335, 1336, 1337, 1338, 1339, 1340, 1341, 1342, 1343, 1344, 1345, 1346, 1347, 1348, 1349, 1350, 1351, 1352, 1353, 1354, 1355, 1356, 1357, 1358, 1359, 1360, 1361, 1362, 1363, 1364, 1365, 1366, 1367, 1368, 1369],
      "AcquisitionTime": ["203025.777500", "203027.777500", "203029.777500", "203031.777500", "203033.777500", "203035.777500", "203037.777500", "203039.777500", "203041.777500", "203043.777500", "203045.777500", "203047.777500", "203049.777500", "203051.777500", "203053.777500", "203055.777500", "203057.777500", "203059.777500", "203101.777500", "203103.777500", "203105.777500", "203107.777500", "203109.777500", "203111.777500", "203113.777500", "203115.777500", "203117.777500", "203119.777500", "203121.777500", "203123.777500", "203125.777500", "203127.777500", "203129.777500", "203131.777500", "203133.777500", "203135.777500", "203137.777500", "203139.777500", "203141.777500", "203143.777500", "203145.777500", "203147.777500", "203149.777500", "203151.777500", "203153.777500", "203155.777500", "203157.777500", "203159.777500", "203201.777500", "203203.777500", "203205.777500", "203207.777500", "203209.777500", "203211.777500", "203213.777500", "203215.777500", "203217.777500", "203219.777500", "203221.777500", "203223.777500", "203225.777500", "203227.777500", "203229.777500", "203231.777500", "203233.777500", "203235.777500", "203237.777500", "203239.777500", "203241.777500", "203243.777500", "203245.777500", "203247.777500", "203249.777500", "203251.777500", "203253.777500", "203255.777500", "203257.777500", "203259.777500", "203301.777500", "203303.777500", "203305.777500", "203307.777500", "203309.777500", "203311.777500", "203313.777500", "203315.777500", "203317.777500", "203319.777500", "203321.777500", "203323.777500", "203325.777500", "203327.777500", "203329.777500", "203331.777500", "203333.777500", "203335.777500", "203337.777500", "203339.777500", "203341.777500", "203343.777500", "203345.777500", "203347.777500", "203349.777500", "203351.777500", "203353.777500", "203355.777500", "203357.777500", "203359.777500", "203401.777500", "203403.777500", "203405.777500", "203407.777500", "203409.777500", "203411.777500", "203413.777500", "203415.777500", "203417.777500", "203419.777500", "203421.777500", "203423.777500", "203425.777500", "203427.777500", "203429.777500", "203431.777500", "203433.777500", "203435.777500", "203437.777500", "203439.777500", "203441.777500", "203443.777500", "203445.777500", "203447.777500", "203449.777500", "203451.777500", "203453.777500", "203455.777500", "203457.777500", "203459.777500", "203501.777500", "203503.777500", "203505.777500", "203507.777500", "203509.777500", "203511.777500", "203513.777500", "203515.777500", "203517.777500", "203519.777500", "203521.777500", "203523.777500", "203525.777500", "203527.777500", "203529.777500", "203531.777500", "203533.777500", "203535.777500", "203537.777500", "203539.777500", "203541.777500", "203543.777500", "203545.777500", "203547.777500", "203549.777500", "203551.777500", "203553.777500", "203555.777500", "203557.777500", "203559.777500", "203601.777500", "203603.777500", "203605.777500", "203607.777500", "203609.777500", "203611.777500", "203613.777500", "203615.777500", "203617.777500", "203619.777500", "203621.777500", "203623.777500", "203625.777500", "203627.777500", "203629.777500", "203631.777500", "203633.777500", "203635.777500", "203637.777500", "203639.777500", "203641.777500", "203643.777500", "203645.777500", "203647.777500", "203649.777500", "203651.777500", "203653.777500", "203655.777500", "203657.777500", "203659.777500", "203701.777500", "203703.777500", "203705.777500", "203707.777500", "203709.777500", "203711.777500", "203713.777500", "203715.777500", "203717.777500", "203719.777500", "203721.777500", "203723.777500", "203725.777500", "203727.777500", "203729.777500", "203731.777500", "203733.777500", "203735.777500", "203737.777500", "203739.777500", "203741.777500", "203743.777500", "203745.777500", "203747.777500", "203749.777500", "203751.777500", "203753.777500", "203755.777500", "203757.777500", "203759.777500", "203801.777500", "203803.777500", "203805.777500", "203807.777500", "203809.777500", "203811.777500", "203813.777500", "203815.777500", "203817.777500", "203819.777500", "203821.777500", "203823.777500", "203825.777500", "203827.777500", "203829.777500", "203831.777500", "203833.777500", "203835.777500", "203837.777500", "203839.777500", "203841.777500", "203843.777500", "203845.777500", "203847.777500", "203849.777500", "203851.777500", "203853.777500", "203855.777500", "203857.777500", "203859.777500", "203901.777500", "203903.777500", "203905.777500", "203907.777500", "203909.777500", "203911.777500", "203913.777500", "203915.777500", "203917.777500", "203919.777500", "203921.777500", "203923.777500", "203925.777500", "203927.777500", "203929.777500", "203931.777500", "203933.777500", "203935.777500", "203937.777500", "203939.777500", "203941.777500", "203943.777500", "203945.777500", "203947.777500", "203949.777500", "203951.777500", "203953.777500", "203955.777500", "203957.777500", "203959.777500", "204001.777500", "204003.777500", "204005.777500", "204007.777500", "204009.777500", "204011.777500", "204013.777500", "204015.777500", "204017.777500", "204019.777500", "204021.777500", "204023.777500", "204025.777500", "204027.777500", "204029.777500", "204031.777500", "204033.777500", "204035.777500", "204037.777500", "204039.777500", "204041.777500", "204043.777500", "204045.777500", "204047.777500", "204049.777500", "204051.777500", "204053.777500", "204055.777500", "204057.777500", "204059.777500", "204101.777500", "204103.777500", "204105.777500", "204107.777500", "204109.777500", "204111.777500", "204113.777500", "204115.777500", "204117.777500", "204119.777500", "204121.777500", "204123.777500", "204125.777500", "204127.777500", "204129.777500", "204131.777500", "204133.777500", "204135.777500", "204137.777500", "204139.777500", "204141.777500", "204143.777500", "204145.777500", "204147.777500", "204149.777500", "204151.777500", "204153.777500", "204155.777500", "204157.777500", "204159.777500", "204201.777500", "204203.777500", "204205.777500", "204207.777500", "204209.777500", "204211.777500", "204213.777500", "204215.777500", "204217.777500", "204219.777500", "204221.777500", "204223.777500", "204225.777500", "204227.777500", "204229.777500", "204231.777500", "204233.777500", "204235.777500", "204237.777500", "204239.777500", "204241.777500", "204243.777500", "204245.777500", "204247.777500", "204249.777500", "204251.777500", "204253.777500", "204255.777500", "204257.777500", "204259.777500", "204301.777500", "204303.777500", "204305.777500", "204307.777500", "204309.777500", "204311.777500", "204313.777500", "204315.777500", "204317.777500", "204319.777500", "204321.777500", "204323.777500", "204325.777500", "204327.777500", "204329.777500", "204331.777500", "204333.777500", "204335.777500", "204337.777500", "204339.777500", "204341.777500", "204343.777500", "204345.777500", "204347.777500", "204349.777500", "204351.777500", "204353.777500", "204355.777500", "204357.777500", "204359.777500", "204401.777500", "204403.777500", "204405.777500", "204407.777500", "204409.777500", "204411.777500", "204413.777500", "204415.777500", "204417.777500", "204419.777500", "204421.777500", "204423.777500", "204425.777500", "204427.777500", "204429.777500", "204431.777500", "204433.777500", "204435.777500", "204437.777500", "204439.777500", "204441.777500", "204443.777500", "204445.777500", "204447.777500", "204449.777500", "204451.777500", "204453.777500", "204455.777500", "204457.777500", "204459.777500", "204501.777500", "204503.777500", "204505.777500", "204507.777500", "204509.777500", "204511.777500", "204513.777500", "204515.777500", "204517.777500", "204519.777500", "204521.777500", "204523.777500", "204525.777500", "204527.777500", "204529.777500", "204531.777500", "204533.777500", "204535.777500", "204537.777500", "204539.777500", "204541.777500", "204543.777500", "204545.777500", "204547.777500", "204549.777500", "204551.777500", "204553.777500", "204555.777500", "204557.777500", "204559.777500", "204601.777500", "204603.777500", "204605.777500", "204607.777500", "204609.777500", "204611.777500", "204613.777500", "204615.777500", "204617.777500", "204619.777500", "204621.777500", "204623.777500", "204625.777500", "204627.777500", "204629.777500", "204631.777500", "204633.777500", "204635.777500", "204637.777500", "204639.777500", "204641.777500", "204643.777500", "204645.777500", "204647.777500", "204649.777500", "204651.777500", "204653.777500", "204655.777500", "204657.777500", "204659.777500", "204701.777500", "204703.777500", "204705.777500", "204707.777500", "204709.777500", "204711.777500", "204713.777500", "204715.777500", "204717.777500", "204719.777500", "204721.777500", "204723.777500", "204725.777500", "204727.777500", "204729.777500", "204731.777500", "204733.777500", "204735.777500", "204737.777500", "204739.777500", "204741.777500", "204743.777500", "204745.777500", "204747.777500", "204749.777500", "204751.777500", "204753.777500", "204755.777500", "204757.777500", "204759.777500", "204801.777500", "204803.777500", "204805.777500", "204807.777500", "204809.777500", "204811.777500", "204813.777500", "204815.777500", "204817.777500", "204819.777500", "204821.777500", "204823.777500", "204825.777500", "204827.777500", "204829.777500", "204831.777500", "204833.777500", "204835.777500", "204837.777500", "204839.777500", "204841.777500", "204843.777500", "204845.777500", "204847.777500", "204849.777500", "204851.777500", "204853.777500", "204855.777500", "204857.777500", "204859.777500", "204901.777500", "204903.777500", "204905.777500", "204907.777500", "204909.777500", "204911.777500", "204913.777500", "204915.777500", "204917.777500", "204919.777500", "204921.777500", "204923.777500", "204925.777500", "204927.777500", "204929.777500", "204931.777500", "204933.777500", "204935.777500", "204937.777500", "204939.777500", "204941.777500", "204943.777500", "204945.777500", "204947.777500", "204949.777500", "204951.777500", "204953.777500", "204955.777500", "204957.777500", "204959.777500", "205001.777500", "205003.777500", "205005.777500", "205007.777500", "205009.777500", "205011.777500", "205013.777500", "205015.777500", "205017.777500", "205019.777500", "205021.777500", "205023.777500", "205025.777500", "205027.777500", "205029.777500", "205031.777500", "205033.777500", "205035.777500", "205037.777500", "205039.777500", "205041.777500", "205043.777500", "205045.777500", "205047.777500", "205049.777500", "205051.777500", "205053.777500", "205055.777500", "205057.777500", "205059.777500", "205101.777500", "205103.777500", "205105.777500", "205107.777500", "205109.777500", "205111.777500", "205113.777500", "205115.777500", "205117.777500", "205119.777500", "205121.777500", "205123.777500", "205125.777500", "205127.777500", "205129.777500", "205131.777500", "205133.777500", "205135.777500", "205137.777500", "205139.777500", "205141.777500", "205143.777500", "205145.777500", "205147.777500", "205149.777500", "205151.777500", "205153.777500", "205155.777500", "205157.777500", "205159.777500", "205201.777500", "205203.777500", "205205.777500", "205207.777500", "205209.777500", "205211.777500", "205213.777500", "205215.777500", "205217.777500", "205219.777500", "205221.777500", "205223.777500", "205225.777500", "205227.777500", "205229.777500", "205231.777500", "205233.777500", "205235.777500", "205237.777500", "205239.777500", "205241.777500", "205243.777500", "205245.777500", "205247.777500", "205249.777500", "205251.777500", "205253.777500", "205255.777500", "205257.777500", "205259.777500", "205301.777500", "205303.777500", "205305.777500", "205307.777500", "205309.777500", "205311.777500", "205313.777500", "205315.777500", "205317.777500", "205319.777500", "205321.777500", "205323.777500", "205325.777500", "205327.777500", "205329.777500", "205331.777500", "205333.777500", "205335.777500", "205337.777500", "205339.777500", "205341.777500", "205343.777500", "205345.777500", "205347.777500", "205349.777500", "205351.777500", "205353.777500", "205355.777500", "205357.777500", "205359.777500", "205401.777500", "205403.777500", "205405.777500", "205407.777500", "205409.777500", "205411.777500", "205413.777500", "205415.777500", "205417.777500", "205419.777500", "205421.777500", "205423.777500", "205425.777500", "205427.777500", "205429.777500", "205431.777500", "205433.777500", "205435.777500", "205437.777500", "205439.777500", "205441.777500", "205443.777500", "205445.777500", "205447.777500", "205449.777500", "205451.777500", "205453.777500", "205455.777500", "205457.777500", "205459.777500", "205501.777500", "205503.777500", "205505.777500", "205507.777500", "205509.777500", "205511.777500", "205513.777500", "205515.777500", "205517.777500", "205519.777500", "205521.777500", "205523.777500", "205525.777500", "205527.777500", "205529.777500", "205531.777500", "205533.777500", "205535.777500", "205537.777500", "205539.777500", "205541.777500", "205543.777500", "205545.777500", "205547.777500", "205549.777500", "205551.777500", "205553.777500", "205555.777500", "205557.777500", "205559.777500", "205601.777500", "205603.777500", "205605.777500", "205607.777500", "205609.777500", "205611.777500", "205613.777500", "205615.777500", "205617.777500", "205619.777500", "205621.777500", "205623.777500", "205625.777500", "205627.777500", "205629.777500", "205631.777500", "205633.777500", "205635.777500", "205637.777500", "205639.777500", "205641.777500", "205643.777500", "205645.777500", "205647.777500", "205649.777500", "205651.777500", "205653.777500", "205655.777500", "205657.777500", "205659.777500", "205701.777500", "205703.777500", "205705.777500", "205707.777500", "205709.777500", "205711.777500", "205713.777500", "205715.777500", "205717.777500", "205719.777500", "205721.777500", "205723.777500", "205725.777500", "205727.777500", "205729.777500", "205731.777500", "205733.777500", "205735.777500", "205737.777500", "205739.777500", "205741.777500", "205743.777500", "205745.777500", "205747.777500", "205749.777500", "205751.777500", "205753.777500", "205755.777500", "205757.777500", "205759.777500", "205801.777500", "205803.777500", "205805.777500", "205807.777500", "205809.777500", "205811.777500", "205813.777500", "205815.777500", "205817.777500", "205819.777500", "205821.777500", "205823.777500", "205825.777500", "205827.777500", "205829.777500", "205831.777500", "205833.777500", "205835.777500", "205837.777500", "205839.777500", "205841.777500", "205843.777500", "205845.777500", "205847.777500", "205849.777500", "205851.777500", "205853.777500", "205855.777500", "205857.777500", "205859.777500", "205901.777500", "205903.777500", "205905.777500", "205907.777500", "205909.777500", "205911.777500", "205913.777500", "205915.777500", "205917.777500", "205919.777500", "205921.777500", "205923.777500", "205925.777500", "205927.777500", "205929.777500", "205931.777500", "205933.777500", "205935.777500", "205937.777500", "205939.777500", "205941.777500", "205943.777500", "205945.777500", "205947.777500", "205949.777500", "205951.777500", "205953.777500", "205955.777500", "205957.777500", "205959.777500", "210001.777500", "210003.777500", "210005.777500", "210007.777500", "210009.777500", "210011.777500", "210013.777500", "210015.777500", "210017.777500", "210019.777500", "210021.777500", "210023.777500", "210025.777500", "210027.777500", "210029.777500", "210031.777500", "210033.777500", "210035.777500", "210037.777500", "210039.777500", "210041.777500", "210043.777500", "210045.777500", "210047.777500", "210049.777500", "210051.777500", "210053.777500", "210055.777500", "210057.777500", "210059.777500", "210101.777500", "210103.777500", "210105.777500", "210107.777500", "210109.777500", "210111.777500", "210113.777500", "210115.777500", "210117.777500", "210119.777500", "210121.777500", "210123.777500", "210125.777500", "210127.777500", "210129.777500", "210131.777500", "210133.777500", "210135.777500", "210137.777500", "210139.777500", "210141.777500", "210143.777500", "210145.777500", "210147.777500", "210149.777500", "210151.777500", "210153.777500", "210155.777500", "210157.777500", "210159.777500", "210201.777500", "210203.777500", "210205.777500", "210207.777500", "210209.777500", "210211.777500", "210213.777500", "210215.777500", "210217.777500", "210219.777500", "210221.777500", "210223.777500", "210225.777500", "210227.777500", "210229.777500", "210231.777500", "210233.777500", "210235.777500", "210237.777500", "210239.777500", "210241.777500", "210243.777500", "210245.777500", "210247.777500", "210249.777500", "210251.777500", "210253.777500", "210255.777500", "210257.777500", "210259.777500", "210301.777500", "210303.777500", "210305.777500", "210307.777500", "210309.777500", "210311.777500", "210313.777500", "210315.777500", "210317.777500", "210319.777500", "210321.777500", "210323.777500", "210325.777500", "210327.777500", "210329.777500", "210331.777500", "210333.777500", "210335.777500", "210337.777500", "210339.777500", "210341.777500", "210343.777500", "210345.777500", "210347.777500", "210349.777500", "210351.777500", "210353.777500", "210355.777500", "210357.777500", "210359.777500", "210401.777500", "210403.777500", "210405.777500", "210407.777500", "210409.777500", "210411.777500", "210413.777500", "210415.777500", "210417.777500", "210419.777500", "210421.777500", "210423.777500", "210425.777500", "210427.777500", "210429.777500", "210431.777500", "210433.777500", "210435.777500", "210437.777500", "210439.777500", "210441.777500", "210443.777500", "210445.777500", "210447.777500", "210449.777500", "210451.777500", "210453.777500", "210455.777500", "210457.777500", "210459.777500", "210501.777500", "210503.777500", "210505.777500", "210507.777500", "210509.777500", "210511.777500", "210513.777500", "210515.777500", "210517.777500", "210519.777500", "210521.777500", "210523.777500", "210525.777500", "210527.777500", "210529.777500", "210531.777500", "210533.777500", "210535.777500", "210537.777500", "210539.777500", "210541.777500", "210543.777500", "210545.777500", "210547.777500", "210549.7