{
  "AcquisitionMatrixPE": 80,
  "AcquisitionNumber": 1,
  "AcquisitionTime": "11:27:49.235000",
  "BandwidthPerPixelPhaseEncode": 51.02,
  "BaseResolution": 80,
  "BodyPartExamined": "BRAIN",
  "ConsistencyInfo": "N4_VE11C_LATEST_20160120",
  "ConversionSoftware": "dcm2niix",
  "ConversionSoftwareVersion": "v1.0.20170923 (OpenJPEG build) GCC6.3.0",
  "DerivedVendorReportedEchoSpacing": 0.000490004,
  "DeviceSerialNumber": "66112",
  "DwellTime": 2.2e-06,
  "EchoTime": 0.025,
  "EchoTrainLength": 39,
  "EffectiveEchoSpacing": 0.000245002,
  "FlipAngle": 75,
  "ImageType": [
    "ORIGINAL",
    "PRIMARY",
    "FMRI",
    "NONE",
    "ND",
    "NORM",
    "MOSAIC"
],
  "InstitutionAddress": "Maynard_3_Hanover_NH_US_03755",
  "InstitutionName": "Dartmouth_College_-_PBS",
  "MagneticFieldStrength": 3,
  "Manufacturer": "Siemens",
  "ManufacturersModelName": "Prisma",
  "Modality": "MR",
  "ParallelReductionFactorInPlane": 2,
  "PartialFourier": 1,
  "PercentPhaseFOV": 100,
  "PhaseEncodingDirection": "j-",
  "PhaseEncodingSteps": 79,
  "PhaseResolution": 1,
  "ProcedureStepDescription": "Chang_Chang_1039_fnlpilot",
  "ProtocolName": "func_run-01_task-movie",
  "PulseSequenceDetails": "%SiemensSeq%_ep2d_bold",
  "ReceiveCoilActiveElements": "HEA;HEP",
  "ReceiveCoilName": "Head_32",
  "ReconMatrixPE": 80,
  "RepetitionTime": 2,
  "ScanOptions": "FS",
  "ScanningSequence": "EP",
  "SequenceName": "_epfid2d1_80",
  "SequenceVariant": "SK",
  "SeriesDescription": "func_run-01_task-movie",
  "SliceTiming": [0.99, 0, 1.04, 0.05, 1.09, 0.1, 1.14, 0.15, 1.19, 0.2, 1.2375, 0.2475, 1.2875, 0.2975, 1.3375, 0.3475, 1.3875, 0.3975, 1.4375, 0.4475, 1.485, 0.495, 1.535, 0.545, 1.585, 0.595, 1.635, 0.645, 1.685, 0.695, 1.7325, 0.7425, 1.7825, 0.7925, 1.8325, 0.8425, 1.8825, 0.8925, 1.9325, 0.9425],
  "SoftwareVersions": "syngo_MR_E11",
  "StationName": "AWP66112",
  "TaskName": "movie",
  "TotalReadoutTime": 0.0193552,
  "dcmmeta_affine": [
    [-2.983342409133911, 0.17254075407981873, 0.2643808424472809, 108.98777770996094],
    [0.1790531426668167, 2.9939115047454834, 0.06658986210823059, -114.3543930053711],
    [0.26001444458961487, -0.0819995254278183, 2.9875857830047607, -55.54250717163086],
    [0.0, 0.0, 0.0, 1.0]
],
  "dcmmeta_reorient_transform": [
    [0.0, -1.0, 0.0, 79.0],
    [1.0, 0.0, 0.0, 0.0],
    [0.0, 0.0, 1.0, 0.0],
    [0.0, 0.0, 0.0, 1.0]
],
  "dcmmeta_shape": [80, 80, 40, 1369],
  "dcmmeta_slice_dim": 2,
  "dcmmeta_version": 0.6,
  "global": {
    "const": {
      "AccessionNumber": "A001102",
      "AcquisitionMatrix": [80, 0, 0, 80],
      "AngioFlag": "N",
      "BitsAllocated": 16,
      "BitsStored": 12,
      "BodyPartExamined": "BRAIN",
      "Columns": 560,
      "EchoNumbers": 1,
      "EchoTime": 25.0,
      "EchoTrainLength": 39,
      "FlipAngle": 75.0,
      "HighBit": 11,
      "ImageOrientationPatient": [0.99444749971431, -0.0596843785189, 0.08667147900414, 0.0575135855969, 0.99797048305072, 0.02733317455578],
      "ImagePositionPatient": [-880.03047916668, -797.7306050208, -144.10382140488],
      "ImageType": [
        "ORIGINAL",
        "PRIMARY",
        "FMRI",
        "NONE",
        "ND",
        "NORM",
        "MOSAIC"
],
      "ImagedNucleus": "1H",
      "ImagingFrequency": 123.252287,
      "InPlanePhaseEncodingDirection": "COL",
      "MRAcquisitionType": "2D",
      "MagneticFieldStrength": 3.0,
      "Manufacturer": "SIEMENS",
      "ManufacturerModelName": "Prisma",
      "Modality": "MR",
      "NumberOfAverages": 1.0,
      "NumberOfPhaseEncodingSteps": 79,
      "PercentPhaseFieldOfView": 100.0,
      "PercentSampling": 100.0,
      "PerformedProcedureStepStartTime": "111450.955000",
      "PhotometricInterpretation": "MONOCHROME2",
      "PixelBandwidth": 2840.0,
      "PixelRepresentation": 0,
      "PixelSpacing": [3.0, 3.0],
      "PositionReferenceIndicator": "",
      "ProtocolName": "func_run-01_task-movie",
      "RepetitionTime": 2000.0,
      "Rows": 560,
      "SAR": 0.137704206567,
      "SamplesPerPixel": 1,
      "ScanOptions": "FS",
      "ScanningSequence": "EP",
      "SequenceName": "*epfid2d1_80",
      "SequenceVariant": "SK",
      "SeriesDescription": "func_run-01_task-movie",
      "SeriesNumber": 6,
      "SeriesTime": "112750.719000",
      "SliceLocation": -48.246190295333,
      "SliceThickness": 3.0,
      "SmallestImagePixelValue": 0,
      "SoftwareVersions": "syngo MR E11",
      "SpacingBetweenSlices": 3.0000000577931,
      "SpecificCharacterSet": "ISO_IR 100",
      "StudyID": "1",
      "StudyTime": "111450.880000",
      "TransmitCoilName": "Body",
      "VariableFlipAngleFlag": "N",
      "WindowCenterWidthExplanation": "Algo1",
      "dBdt": 0.0},
    "slices": {}
  },
  "time": {
    "samples": {
      "AcquisitionNumber": [1, 2, 3, 4, 5, 6, 7, 8, 9, 10, 11, 12, 13, 14, 15, 16, 17, 18, 19, 20, 21, 22, 23, 24, 25, 26, 27, 28, 29, 30, 31, 32, 33, 34, 35, 36, 37, 38, 39, 40, 41, 42, 43, 44, 45, 46, 47, 48, 49, 50, 51, 52, 53, 54, 55, 56, 57, 58, 59, 60, 61, 62, 63, 64, 65, 66, 67, 68, 69, 70, 71, 72, 73, 74, 75, 76, 77, 78, 79, 80, 81, 82, 83, 84, 85, 86, 87, 88, 89, 90, 91, 92, 93, 94, 95, 96, 97, 98, 99, 100, 101, 102, 103, 104, 105, 106, 107, 108, 109, 110, 111, 112, 113, 114, 115, 116, 117, 118, 119, 120, 121, 122, 123, 124, 125, 126, 127, 128, 129, 130, 131, 132, 133, 134, 135, 136, 137, 138, 139, 140, 141, 142, 143, 144, 145, 146, 147, 148, 149, 150, 151, 152, 153, 154, 155, 156, 157, 158, 159, 160, 161, 162, 163, 164, 165, 166, 167, 168, 169, 170, 171, 172, 173, 174, 175, 176, 177, 178, 179, 180, 181, 182, 183, 184, 185, 186, 187, 188, 189, 190, 191, 192, 193, 194, 195, 196, 197, 198, 199, 200, 201, 202, 203, 204, 205, 206, 207, 208, 209, 210, 211, 212, 213, 214, 215, 216, 217, 218, 219, 220, 221, 222, 223, 224, 225, 226, 227, 228, 229, 230, 231, 232, 233, 234, 235, 236, 237, 238, 239, 240, 241, 242, 243, 244, 245, 246, 247, 248, 249, 250, 251, 252, 253, 254, 255, 256, 257, 258, 259, 260, 261, 262, 263, 264, 265, 266, 267, 268, 269, 270, 271, 272, 273, 274, 275, 276, 277, 278, 279, 280, 281, 282, 283, 284, 285, 286, 287, 288, 289, 290, 291, 292, 293, 294, 295, 296, 297, 298, 299, 300, 301, 302, 303, 304, 305, 306, 307, 308, 309, 310, 311, 312, 313, 314, 315, 316, 317, 318, 319, 320, 321, 322, 323, 324, 325, 326, 327, 328, 329, 330, 331, 332, 333, 334, 335, 336, 337, 338, 339, 340, 341, 342, 343, 344, 345, 346, 347, 348, 349, 350, 351, 352, 353, 354, 355, 356, 357, 358, 359, 360, 361, 362, 363, 364, 365, 366, 367, 368, 369, 370, 371, 372, 373, 374, 375, 376, 377, 378, 379, 380, 381, 382, 383, 384, 385, 386, 387, 388, 389, 390, 391, 392, 393, 394, 395, 396, 397, 398, 399, 400, 401, 402, 403, 404, 405, 406, 407, 408, 409, 410, 411, 412, 413, 414, 415, 416, 417, 418, 419, 420, 421, 422, 423, 424, 425, 426, 427, 428, 429, 430, 431, 432, 433, 434, 435, 436, 437, 438, 439, 440, 441, 442, 443, 444, 445, 446, 447, 448, 449, 450, 451, 452, 453, 454, 455, 456, 457, 458, 459, 460, 461, 462, 463, 464, 465, 466, 467, 468, 469, 470, 471, 472, 473, 474, 475, 476, 477, 478, 479, 480, 481, 482, 483, 484, 485, 486, 487, 488, 489, 490, 491, 492, 493, 494, 495, 496, 497, 498, 499, 500, 501, 502, 503, 504, 505, 506, 507, 508, 509, 510, 511, 512, 513, 514, 515, 516, 517, 518, 519, 520, 521, 522, 523, 524, 525, 526, 527, 528, 529, 530, 531, 532, 533, 534, 535, 536, 537, 538, 539, 540, 541, 542, 543, 544, 545, 546, 547, 548, 549, 550, 551, 552, 553, 554, 555, 556, 557, 558, 559, 560, 561, 562, 563, 564, 565, 566, 567, 568, 569, 570, 571, 572, 573, 574, 575, 576, 577, 578, 579, 580, 581, 582, 583, 584, 585, 586, 587, 588, 589, 590, 591, 592, 593, 594, 595, 596, 597, 598, 599, 600, 601, 602, 603, 604, 605, 606, 607, 608, 609, 610, 611, 612, 613, 614, 615, 616, 617, 618, 619, 620, 621, 622, 623, 624, 625, 626, 627, 628, 629, 630, 631, 632, 633, 634, 635, 636, 637, 638, 639, 640, 641, 642, 643, 644, 645, 646, 647, 648, 649, 650, 651, 652, 653, 654, 655, 656, 657, 658, 659, 660, 661, 662, 663, 664, 665, 666, 667, 668, 669, 670, 671, 672, 673, 674, 675, 676, 677, 678, 679, 680, 681, 682, 683, 684, 685, 686, 687, 688, 689, 690, 691, 692, 693, 694, 695, 696, 697, 698, 699, 700, 701, 702, 703, 704, 705, 706, 707, 708, 709, 710, 711, 712, 713, 714, 715, 716, 717, 718, 719, 720, 721, 722, 723, 724, 725, 726, 727, 728, 729, 730, 731, 732, 733, 734, 735, 736, 737, 738, 739, 740, 741, 742, 743, 744, 745, 746, 747, 748, 749, 750, 751, 752, 753, 754, 755, 756, 757, 758, 759, 760, 761, 762, 763, 764, 765, 766, 767, 768, 769, 770, 771, 772, 773, 774, 775, 776, 777, 778, 779, 780, 781, 782, 783, 784, 785, 786, 787, 788, 789, 790, 791, 792, 793, 794, 795, 796, 797, 798, 799, 800, 801, 802, 803, 804, 805, 806, 807, 808, 809, 810, 811, 812, 813, 814, 815, 816, 817, 818, 819, 820, 821, 822, 823, 824, 825, 826, 827, 828, 829, 830, 831, 832, 833, 834, 835, 836, 837, 838, 839, 840, 841, 842, 843, 844, 845, 846, 847, 848, 849, 850, 851, 852, 853, 854, 855, 856, 857, 858, 859, 860, 861, 862, 863, 864, 865, 866, 867, 868, 869, 870, 871, 872, 873, 874, 875, 876, 877, 878, 879, 880, 881, 882, 883, 884, 885, 886, 887, 888, 889, 890, 891, 892, 893, 894, 895, 896, 897, 898, 899, 900, 901, 902, 903, 904, 905, 906, 907, 908, 909, 910, 911, 912, 913, 914, 915, 916, 917, 918, 919, 920, 921, 922, 923, 924, 925, 926, 927, 928, 929, 930, 931, 932, 933, 934, 935, 936, 937, 938, 939, 940, 941, 942, 943, 944, 945, 946, 947, 948, 949, 950, 951, 952, 953, 954, 955, 956, 957, 958, 959, 960, 961, 962, 963, 964, 965, 966, 967, 968, 969, 970, 971, 972, 973, 974, 975, 976, 977, 978, 979, 980, 981, 982, 983, 984, 985, 986, 987, 988, 989, 990, 991, 992, 993, 994, 995, 996, 997, 998, 999, 1000, 1001, 1002, 1003, 1004, 1005, 1006, 1007, 1008, 1009, 1010, 1011, 1012, 1013, 1014, 1015, 1016, 1017, 1018, 1019, 1020, 1021, 1022, 1023, 1024, 1025, 1026, 1027, 1028, 1029, 1030, 1031, 1032, 1033, 1034, 1035, 1036, 1037, 1038, 1039, 1040, 1041, 1042, 1043, 1044, 1045, 1046, 1047, 1048, 1049, 1050, 1051, 1052, 1053, 1054, 1055, 1056, 1057, 1058, 1059, 1060, 1061, 1062, 1063, 1064, 1065, 1066, 1067, 1068, 1069, 1070, 1071, 1072, 1073, 1074, 1075, 1076, 1077, 1078, 1079, 1080, 1081, 1082, 1083, 1084, 1085, 1086, 1087, 1088, 1089, 1090, 1091, 1092, 1093, 1094, 1095, 1096, 1097, 1098, 1099, 1100, 1101, 1102, 1103, 1104, 1105, 1106, 1107, 1108, 1109, 1110, 1111, 1112, 1113, 1114, 1115, 1116, 1117, 1118, 1119, 1120, 1121, 1122, 1123, 1124, 1125, 1126, 1127, 1128, 1129, 1130, 1131, 1132, 1133, 1134, 1135, 1136, 1137, 1138, 1139, 1140, 1141, 1142, 1143, 1144, 1145, 1146, 1147, 1148, 1149, 1150, 1151, 1152, 1153, 1154, 1155, 1156, 1157, 1158, 1159, 1160, 1161, 1162, 1163, 1164, 1165, 1166, 1167, 1168, 1169, 1170, 1171, 1172, 1173, 1174, 1175, 1176, 1177, 1178, 1179, 1180, 1181, 1182, 1183, 1184, 1185, 1186, 1187, 1188, 1189, 1190, 1191, 1192, 1193, 1194, 1195, 1196, 1197, 1198, 1199, 1200, 1201, 1202, 1203, 1204, 1205, 1206, 1207, 1208, 1209, 1210, 1211, 1212, 1213, 1214, 1215, 1216, 1217, 1218, 1219, 1220, 1221, 1222, 1223, 1224, 1225, 1226, 1227, 1228, 1229, 1230, 1231, 1232, 1233, 1234, 1235, 1236, 1237, 1238, 1239, 1240, 1241, 1242, 1243, 1244, 1245, 1246, 1247, 1248, 1249, 1250, 1251, 1252, 1253, 1254, 1255, 1256, 1257, 1258, 1259, 1260, 1261, 1262, 1263, 1264, 1265, 1266, 1267, 1268, 1269, 1270, 1271, 1272, 1273, 1274, 1275, 1276, 1277, 1278, 1279, 1280, 1281, 1282, 1283, 1284, 1285, 1286, 1287, 1288, 1289, 1290, 1291, 1292, 1293, 1294, 1295, 1296, 1297, 1298, 1299, 1300, 1301, 1302, 1303, 1304, 1305, 1306, 1307, 1308, 1309, 1310, 1311, 1312, 1313, 1314, 1315, 1316, 1317, 1318, 1319, 1320, 1321, 1322, 1323, 1324, 1325, 1326, 1327, 1328, 1329, 1330, 1331, 1332, 1333, 1334, 1335, 1336, 1337, 1338, 1339, 1340, 1341, 1342, 1343, 1344, 1345, 1346, 1347, 1348, 1349, 1350, 1351, 1352, 1353, 1354, 1355, 1356, 1357, 1358, 1359, 1360, 1361, 1362, 1363, 1364, 1365, 1366, 1367, 1368, 1369],
      "AcquisitionTime": ["112749.235000", "112751.235000", "112753.235000", "112755.235000", "112757.235000", "112759.235000", "112801.235000", "112803.235000", "112805.235000", "112807.235000", "112809.235000", "112811.235000", "112813.235000", "112815.235000", "112817.235000", "112819.235000", "112821.235000", "112823.235000", "112825.235000", "112827.235000", "112829.235000", "112831.235000", "112833.235000", "112835.235000", "112837.235000", "112839.235000", "112841.235000", "112843.235000", "112845.235000", "112847.235000", "112849.235000", "112851.235000", "112853.235000", "112855.235000", "112857.235000", "112859.235000", "112901.235000", "112903.235000", "112905.235000", "112907.235000", "112909.235000", "112911.235000", "112913.235000", "112915.235000", "112917.235000", "112919.235000", "112921.235000", "112923.235000", "112925.235000", "112927.235000", "112929.235000", "112931.235000", "112933.235000", "112935.235000", "112937.235000", "112939.235000", "112941.235000", "112943.235000", "112945.235000", "112947.235000", "112949.235000", "112951.235000", "112953.235000", "112955.235000", "112957.235000", "112959.235000", "113001.235000", "113003.235000", "113005.235000", "113007.235000", "113009.235000", "113011.235000", "113013.235000", "113015.235000", "113017.235000", "113019.235000", "113021.235000", "113023.235000", "113025.235000", "113027.235000", "113029.235000", "113031.235000", "113033.235000", "113035.235000", "113037.235000", "113039.235000", "113041.235000", "113043.235000", "113045.235000", "113047.235000", "113049.235000", "113051.235000", "113053.235000", "113055.235000", "113057.235000", "113059.235000", "113101.235000", "113103.235000", "113105.235000", "113107.235000", "113109.235000", "113111.235000", "113113.235000", "113115.235000", "113117.235000", "113119.235000", "113121.235000", "113123.235000", "113125.235000", "113127.235000", "113129.235000", "113131.235000", "113133.235000", "113135.235000", "113137.235000", "113139.235000", "113141.235000", "113143.235000", "113145.235000", "113147.235000", "113149.235000", "113151.235000", "113153.235000", "113155.235000", "113157.235000", "113159.235000", "113201.235000", "113203.235000", "113205.235000", "113207.235000", "113209.235000", "113211.235000", "113213.235000", "113215.235000", "113217.235000", "113219.235000", "113221.235000", "113223.235000", "113225.235000", "113227.235000", "113229.235000", "113231.235000", "113233.235000", "113235.235000", "113237.235000", "113239.235000", "113241.235000", "113243.235000", "113245.235000", "113247.235000", "113249.235000", "113251.235000", "113253.235000", "113255.235000", "113257.235000", "113259.235000", "113301.235000", "113303.235000", "113305.235000", "113307.235000", "113309.235000", "113311.235000", "113313.235000", "113315.235000", "113317.235000", "113319.235000", "113321.235000", "113323.235000", "113325.235000", "113327.235000", "113329.235000", "113331.235000", "113333.235000", "113335.235000", "113337.235000", "113339.235000", "113341.235000", "113343.235000", "113345.235000", "113347.235000", "113349.235000", "113351.235000", "113353.235000", "113355.235000", "113357.235000", "113359.235000", "113401.235000", "113403.235000", "113405.235000", "113407.235000", "113409.235000", "113411.235000", "113413.235000", "113415.235000", "113417.235000", "113419.235000", "113421.235000", "113423.235000", "113425.235000", "113427.235000", "113429.235000", "113431.235000", "113433.235000", "113435.235000", "113437.235000", "113439.235000", "113441.235000", "113443.235000", "113445.235000", "113447.235000", "113449.235000", "113451.235000", "113453.235000", "113455.235000", "113457.235000", "113459.235000", "113501.235000", "113503.235000", "113505.235000", "113507.235000", "113509.235000", "113511.235000", "113513.235000", "113515.235000", "113517.235000", "113519.235000", "113521.235000", "113523.235000", "113525.235000", "113527.235000", "113529.235000", "113531.235000", "113533.235000", "113535.235000", "113537.235000", "113539.235000", "113541.235000", "113543.235000", "113545.235000", "113547.235000", "113549.235000", "113551.235000", "113553.235000", "113555.235000", "113557.235000", "113559.235000", "113601.235000", "113603.235000", "113605.235000", "113607.235000", "113609.235000", "113611.235000", "113613.235000", "113615.235000", "113617.235000", "113619.235000", "113621.235000", "113623.235000", "113625.235000", "113627.235000", "113629.235000", "113631.235000", "113633.235000", "113635.235000", "113637.235000", "113639.235000", "113641.235000", "113643.235000", "113645.235000", "113647.235000", "113649.235000", "113651.235000", "113653.235000", "113655.235000", "113657.235000", "113659.235000", "113701.235000", "113703.235000", "113705.235000", "113707.235000", "113709.235000", "113711.235000", "113713.235000", "113715.235000", "113717.235000", "113719.235000", "113721.235000", "113723.235000", "113725.235000", "113727.235000", "113729.235000", "113731.235000", "113733.235000", "113735.235000", "113737.235000", "113739.235000", "113741.235000", "113743.235000", "113745.235000", "113747.235000", "113749.235000", "113751.235000", "113753.235000", "113755.235000", "113757.235000", "113759.235000", "113801.235000", "113803.235000", "113805.235000", "113807.235000", "113809.235000", "113811.235000", "113813.235000", "113815.235000", "113817.235000", "113819.235000", "113821.235000", "113823.235000", "113825.235000", "113827.235000", "113829.235000", "113831.235000", "113833.235000", "113835.235000", "113837.235000", "113839.235000", "113841.235000", "113843.235000", "113845.235000", "113847.235000", "113849.235000", "113851.235000", "113853.235000", "113855.235000", "113857.235000", "113859.235000", "113901.235000", "113903.235000", "113905.235000", "113907.235000", "113909.235000", "113911.235000", "113913.235000", "113915.235000", "113917.235000", "113919.235000", "113921.235000", "113923.235000", "113925.235000", "113927.235000", "113929.235000", "113931.235000", "113933.235000", "113935.235000", "113937.235000", "113939.235000", "113941.235000", "113943.235000", "113945.235000", "113947.235000", "113949.235000", "113951.235000", "113953.235000", "113955.235000", "113957.235000", "113959.235000", "114001.235000", "114003.235000", "114005.235000", "114007.235000", "114009.235000", "114011.235000", "114013.235000", "114015.235000", "114017.235000", "114019.235000", "114021.235000", "114023.235000", "114025.235000", "114027.235000", "114029.235000", "114031.235000", "114033.235000", "114035.235000", "114037.235000", "114039.235000", "114041.235000", "114043.235000", "114045.235000", "114047.235000", "114049.235000", "114051.235000", "114053.235000", "114055.235000", "114057.235000", "114059.235000", "114101.235000", "114103.235000", "114105.235000", "114107.235000", "114109.235000", "114111.235000", "114113.235000", "114115.235000", "114117.235000", "114119.235000", "114121.235000", "114123.235000", "114125.235000", "114127.235000", "114129.235000", "114131.235000", "114133.235000", "114135.235000", "114137.235000", "114139.235000", "114141.235000", "114143.235000", "114145.235000", "114147.235000", "114149.235000", "114151.235000", "114153.235000", "114155.235000", "114157.235000", "114159.235000", "114201.235000", "114203.235000", "114205.235000", "114207.235000", "114209.235000", "114211.235000", "114213.235000", "114215.235000", "114217.235000", "114219.235000", "114221.235000", "114223.235000", "114225.235000", "114227.235000", "114229.235000", "114231.235000", "114233.235000", "114235.235000", "114237.235000", "114239.235000", "114241.235000", "114243.235000", "114245.235000", "114247.235000", "114249.235000", "114251.235000", "114253.235000", "114255.235000", "114257.235000", "114259.235000", "114301.235000", "114303.235000", "114305.235000", "114307.235000", "114309.235000", "114311.235000", "114313.235000", "114315.235000", "114317.235000", "114319.235000", "114321.235000", "114323.235000", "114325.235000", "114327.235000", "114329.235000", "114331.235000", "114333.235000", "114335.235000", "114337.235000", "114339.235000", "114341.235000", "114343.235000", "114345.235000", "114347.235000", "114349.235000", "114351.235000", "114353.235000", "114355.235000", "114357.235000", "114359.235000", "114401.235000", "114403.235000", "114405.235000", "114407.235000", "114409.235000", "114411.235000", "114413.235000", "114415.235000", "114417.235000", "114419.235000", "114421.235000", "114423.235000", "114425.235000", "114427.235000", "114429.235000", "114431.235000", "114433.235000", "114435.235000", "114437.235000", "114439.235000", "114441.235000", "114443.235000", "114445.235000", "114447.235000", "114449.235000", "114451.235000", "114453.235000", "114455.235000", "114457.235000", "114459.235000", "114501.235000", "114503.235000", "114505.235000", "114507.235000", "114509.235000", "114511.235000", "114513.235000", "114515.235000", "114517.235000", "114519.235000", "114521.235000", "114523.235000", "114525.235000", "114527.235000", "114529.235000", "114531.235000", "114533.235000", "114535.235000", "114537.235000", "114539.235000", "114541.235000", "114543.235000", "114545.235000", "114547.235000", "114549.235000", "114551.235000", "114553.235000", "114555.235000", "114557.235000", "114559.235000", "114601.235000", "114603.235000", "114605.235000", "114607.235000", "114609.235000", "114611.235000", "114613.235000", "114615.235000", "114617.235000", "114619.235000", "114621.235000", "114623.235000", "114625.235000", "114627.235000", "114629.235000", "114631.235000", "114633.235000", "114635.235000", "114637.235000", "114639.235000", "114641.235000", "114643.235000", "114645.235000", "114647.235000", "114649.235000", "114651.235000", "114653.235000", "114655.235000", "114657.235000", "114659.235000", "114701.235000", "114703.235000", "114705.235000", "114707.235000", "114709.235000", "114711.235000", "114713.235000", "114715.235000", "114717.235000", "114719.235000", "114721.235000", "114723.235000", "114725.235000", "114727.235000", "114729.235000", "114731.235000", "114733.235000", "114735.235000", "114737.235000", "114739.235000", "114741.235000", "114743.235000", "114745.235000", "114747.235000", "114749.235000", "114751.235000", "114753.235000", "114755.235000", "114757.235000", "114759.235000", "114801.235000", "114803.235000", "114805.235000", "114807.235000", "114809.235000", "114811.235000", "114813.235000", "114815.235000", "114817.235000", "114819.235000", "114821.235000", "114823.235000", "114825.235000", "114827.235000", "114829.235000", "114831.235000", "114833.235000", "114835.235000", "114837.235000", "114839.235000", "114841.235000", "114843.235000", "114845.235000", "114847.235000", "114849.235000", "114851.235000", "114853.235000", "114855.235000", "114857.235000", "114859.235000", "114901.235000", "114903.235000", "114905.235000", "114907.235000", "114909.235000", "114911.235000", "114913.235000", "114915.235000", "114917.235000", "114919.235000", "114921.235000", "114923.235000", "114925.235000", "114927.235000", "114929.235000", "114931.235000", "114933.235000", "114935.235000", "114937.235000", "114939.235000", "114941.235000", "114943.235000", "114945.235000", "114947.235000", "114949.235000", "114951.235000", "114953.235000", "114955.235000", "114957.235000", "114959.235000", "115001.235000", "115003.235000", "115005.235000", "115007.235000", "115009.235000", "115011.235000", "115013.235000", "115015.235000", "115017.235000", "115019.235000", "115021.235000", "115023.235000", "115025.235000", "115027.235000", "115029.235000", "115031.235000", "115033.235000", "115035.235000", "115037.235000", "115039.235000", "115041.235000", "115043.235000", "115045.235000", "115047.235000", "115049.235000", "115051.235000", "115053.235000", "115055.235000", "115057.235000", "115059.235000", "115101.235000", "115103.235000", "115105.235000", "115107.235000", "115109.235000", "115111.235000", "115113.235000", "115115.235000", "115117.235000", "115119.235000", "115121.235000", "115123.235000", "115125.235000", "115127.235000", "115129.235000", "115131.235000", "115133.235000", "115135.235000", "115137.235000", "115139.235000", "115141.235000", "115143.235000", "115145.235000", "115147.235000", "115149.235000", "115151.235000", "115153.235000", "115155.235000", "115157.235000", "115159.235000", "115201.235000", "115203.235000", "115205.235000", "115207.235000", "115209.235000", "115211.235000", "115213.235000", "115215.235000", "115217.235000", "115219.235000", "115221.235000", "115223.235000", "115225.235000", "115227.235000", "115229.235000", "115231.235000", "115233.235000", "115235.235000", "115237.235000", "115239.235000", "115241.235000", "115243.235000", "115245.235000", "115247.235000", "115249.235000", "115251.235000", "115253.235000", "115255.235000", "115257.235000", "115259.235000", "115301.235000", "115303.235000", "115305.235000", "115307.235000", "115309.235000", "115311.235000", "115313.235000", "115315.235000", "115317.235000", "115319.235000", "115321.235000", "115323.235000", "115325.235000", "115327.235000", "115329.235000", "115331.235000", "115333.235000", "115335.235000", "115337.235000", "115339.235000", "115341.235000", "115343.235000", "115345.235000", "115347.235000", "115349.235000", "115351.235000", "115353.235000", "115355.235000", "115357.235000", "115359.235000", "115401.235000", "115403.235000", "115405.235000", "115407.235000", "115409.235000", "115411.235000", "115413.235000", "115415.235000", "115417.235000", "115419.235000", "115421.235000", "115423.235000", "115425.235000", "115427.235000", "115429.235000", "115431.235000", "115433.235000", "115435.235000", "115437.235000", "115439.235000", "115441.235000", "115443.235000", "115445.235000", "115447.235000", "115449.235000", "115451.235000", "115453.235000", "115455.235000", "115457.235000", "115459.235000", "115501.235000", "115503.235000", "115505.235000", "115507.235000", "115509.235000", "115511.235000", "115513.235000", "115515.235000", "115517.235000", "115519.235000", "115521.235000", "115523.235000", "115525.235000", "115527.235000", "115529.235000", "115531.235000", "115533.235000", "115535.235000", "115537.235000", "115539.235000", "115541.235000", "115543.235000", "115545.235000", "115547.235000", "115549.235000", "115551.235000", "115553.235000", "115555.235000", "115557.235000", "115559.235000", "115601.235000", "115603.235000", "115605.235000", "115607.235000", "115609.235000", "115611.235000", "115613.235000", "115615.235000", "115617.235000", "115619.235000", "115621.235000", "115623.235000", "115625.235000", "115627.235000", "115629.235000", "115631.235000", "115633.235000", "115635.235000", "115637.235000", "115639.235000", "115641.235000", "115643.235000", "115645.235000", "115647.235000", "115649.235000", "115651.235000", "115653.235000", "115655.235000", "115657.235000", "115659.235000", "115701.235000", "115703.235000", "115705.235000", "115707.235000", "115709.235000", "115711.235000", "115713.235000", "115715.235000", "115717.235000", "115719.235000", "115721.235000", "115723.235000", "115725.235000", "115727.235000", "115729.235000", "115731.235000", "115733.235000", "115735.235000", "115737.235000", "115739.235000", "115741.235000", "115743.235000", "115745.235000", "115747.235000", "115749.235000", "115751.235000", "115753.235000", "115755.235000", "115757.235000", "115759.235000", "115801.235000", "115803.235000", "115805.235000", "115807.235000", "115809.235000", "115811.235000", "115813.235000", "115815.235000", "115817.235000", "115819.235000", "115821.235000", "115823.235000", "115825.235000", "115827.235000", "115829.235000", "115831.235000", "115833.235000", "115835.235000", "115837.235000", "115839.235000", "115841.235000", "115843.235000", "115845.235000", "115847.235000", "115849.235000", "115851.235000", "115853.235000", "115855.235000", "115857.235000", "115859.235000", "115901.235000", "115903.235000", "115905.235000", "115907.235000", "115909.235000", "115911.235000", "115913.235000", "115915.235000", "115917.235000", "115919.235000", "115921.235000", "115923.235000", "115925.235000", "115927.235000", "115929.235000", "115931.235000", "115933.235000", "115935.235000", "115937.235000", "115939.235000", "115941.235000", "115943.235000", "115945.235000", "115947.235000", "115949.235000", "115951.235000", "115953.235000", "115955.235000", "115957.235000", "115959.235000", "120001.235000", "120003.235000", "120005.235000", "120007.235000", "120009.235000", "120011.235000", "120013.235000", "120015.235000", "120017.235000", "120019.235000", "120021.235000", "120023.235000", "120025.235000", "120027.235000", "120029.235000", "120031.235000", "120033.235000", "120035.235000", "120037.235000", "120039.235000", "120041.235000", "120043.235000", "120045.235000", "120047.235000", "120049.235000", "120051.235000", "120053.235000", "120055.235000", "120057.235000", "120059.235000", "120101.235000", "120103.235000", "120105.235000", "120107.235000", "120109.235000", "120111.235000", "120113.235000", "120115.235000", "120117.235000", "120119.235000", "120121.235000", "120123.235000", "120125.235000", "120127.235000", "120129.235000", "120131.235000", "120133.235000", "120135.235000", "120137.235000", "120139.235000", "120141.235000", "120143.235000", "120145.235000", "120147.235000", "120149.235000", "120151.235000", "120153.235000", "120155.235000", "120157.235000", "120159.235000", "120201.235000", "120203.235000", "120205.235000", "120207.235000", "120209.235000", "120211.235000", "120213.235000", "120215.235000", "120217.235000", "120219.235000", "120221.235000", "120223.235000", "120225.235000", "120227.235000", "120229.235000", "120231.235000", "120233.235000", "120235.235000", "120237.235000", "120239.235000", "120241.235000", "120243.235000", "120245.235000", "120247.235000", "120249.235000", "120251.235000", "120253.235000", "120255.235000", "120257.235000", "120259.235000", "120301.235000", "120303.235000", "120305.235000", "120307.235000", "120309.235000", "120311.235000", "120313.235000", "120