{
  "AcquisitionMatrixPE": 80,
  "AcquisitionNumber": 1,
  "AcquisitionTime": "19:19:43.572500",
  "BandwidthPerPixelPhaseEncode": 51.02,
  "BaseResolution": 80,
  "BodyPartExamined": "BRAIN",
  "ConsistencyInfo": "N4_VE11C_LATEST_20160120",
  "ConversionSoftware": "dcm2niix",
  "ConversionSoftwareVersion": "v1.0.20170923 (OpenJPEG build) GCC6.3.0",
  "DerivedVendorReportedEchoSpacing": 0.000490004,
  "DeviceSerialNumber": "66112",
  "DwellTime": 2.2e-06,
  "EchoTime": 0.025,
  "EchoTrainLength": 39,
  "EffectiveEchoSpacing": 0.000245002,
  "FlipAngle": 75,
  "ImageType": [
    "ORIGINAL",
    "PRIMARY",
    "FMRI",
    "NONE",
    "ND",
    "NORM",
    "MOSAIC"
],
  "InstitutionAddress": "Maynard_3_Hanover_NH_US_03755",
  "InstitutionName": "Dartmouth_College_-_PBS",
  "MagneticFieldStrength": 3,
  "Manufacturer": "Siemens",
  "ManufacturersModelName": "Prisma",
  "Modality": "MR",
  "ParallelReductionFactorInPlane": 2,
  "PartialFourier": 1,
  "PercentPhaseFOV": 100,
  "PhaseEncodingDirection": "j-",
  "PhaseEncodingSteps": 79,
  "PhaseResolution": 1,
  "ProcedureStepDescription": "Chang_Chang_1039_fnlpilot",
  "ProtocolName": "func_run-01_task-movie",
  "PulseSequenceDetails": "%SiemensSeq%_ep2d_bold",
  "ReceiveCoilActiveElements": "HEA;HEP",
  "ReceiveCoilName": "Head_32",
  "ReconMatrixPE": 80,
  "RepetitionTime": 2,
  "ScanOptions": "FS",
  "ScanningSequence": "EP",
  "SequenceName": "_epfid2d1_80",
  "SequenceVariant": "SK",
  "SeriesDescription": "func_run-01_task-movie",
  "SliceTiming": [0.9875, 0, 1.0375, 0.0475, 1.0875, 0.0975, 1.1375, 0.1475, 1.1875, 0.1975, 1.235, 0.245, 1.285, 0.295, 1.335, 0.345, 1.385, 0.395, 1.435, 0.445, 1.4825, 0.4925, 1.5325, 0.5425, 1.5825, 0.5925, 1.6325, 0.6425, 1.6825, 0.6925, 1.73, 0.74, 1.78, 0.79, 1.83, 0.84, 1.88, 0.89, 1.93, 0.94],
  "SoftwareVersions": "syngo_MR_E11",
  "StationName": "AWP66112",
  "TaskName": "movie",
  "TotalReadoutTime": 0.0193552,
  "dcmmeta_affine": [
    [-2.9724161624908447, -0.36918050050735474, -0.16866450011730194, 138.96038818359375],
    [-0.36272749304771423, 2.975548505783081, -0.12057896703481674, -92.46484375],
    [-0.18212826550006866, 0.09907720237970352, 2.9928269386291504, -43.546478271484375],
    [0.0, 0.0, 0.0, 1.0]
],
  "dcmmeta_reorient_transform": [
    [0.0, -1.0, 0.0, 79.0],
    [1.0, 0.0, 0.0, 0.0],
    [0.0, 0.0, 1.0, 0.0],
    [0.0, 0.0, 0.0, 1.0]
],
  "dcmmeta_shape": [80, 80, 40, 1369],
  "dcmmeta_slice_dim": 2,
  "dcmmeta_version": 0.6,
  "global": {
    "const": {
      "AccessionNumber": "A001099",
      "AcquisitionMatrix": [80, 0, 0, 80],
      "AngioFlag": "N",
      "BitsAllocated": 16,
      "BitsStored": 12,
      "BodyPartExamined": "BRAIN",
      "Columns": 560,
      "EchoNumbers": 1,
      "EchoTime": 25.0,
      "EchoTrainLength": 39,
      "FlipAngle": 75.0,
      "HighBit": 11,
      "ImageOrientationPatient": [0.99080539926695, 0.1209091684712, -0.060709420711, -0.1230601646109, 0.99184953332043, -0.0330257344805],
      "ImagePositionPatient": [-734.57170565293, -943.78976395748, 31.769932399362],
      "ImageType": [
        "ORIGINAL",
        "PRIMARY",
        "FMRI",
        "NONE",
        "ND",
        "NORM",
        "MOSAIC"
],
      "ImagedNucleus": "1H",
      "ImagingFrequency": 123.252326,
      "InPlanePhaseEncodingDirection": "COL",
      "MRAcquisitionType": "2D",
      "MagneticFieldStrength": 3.0,
      "Manufacturer": "SIEMENS",
      "ManufacturerModelName": "Prisma",
      "Modality": "MR",
      "NumberOfAverages": 1.0,
      "NumberOfPhaseEncodingSteps": 79,
      "PercentPhaseFieldOfView": 100.0,
      "PercentSampling": 100.0,
      "PerformedProcedureStepStartTime": "190009.581000",
      "PhotometricInterpretation": "MONOCHROME2",
      "PixelBandwidth": 2840.0,
      "PixelRepresentation": 0,
      "PixelSpacing": [3.0, 3.0],
      "PositionReferenceIndicator": "",
      "ProtocolName": "func_run-01_task-movie",
      "RepetitionTime": 2000.0,
      "Rows": 560,
      "SAR": 0.09748260416128,
      "SamplesPerPixel": 1,
      "ScanOptions": "FS",
      "ScanningSequence": "EP",
      "SequenceName": "*epfid2d1_80",
      "SequenceVariant": "SK",
      "SeriesDescription": "func_run-01_task-movie",
      "SeriesNumber": 15,
      "SeriesTime": "191945.136000",
      "SliceLocation": -47.538480922808,
      "SliceThickness": 3.0,
      "SmallestImagePixelValue": 0,
      "SoftwareVersions": "syngo MR E11",
      "SpacingBetweenSlices": 3.0000000740434,
      "SpecificCharacterSet": "ISO_IR 100",
      "StudyID": "1",
      "StudyTime": "190009.530000",
      "TransmitCoilName": "Body",
      "VariableFlipAngleFlag": "N",
      "WindowCenterWidthExplanation": "Algo1",
      "dBdt": 0.0},
    "slices": {}
  },
  "time": {
    "samples": {
      "AcquisitionNumber": [1, 2, 3, 4, 5, 6, 7, 8, 9, 10, 11, 12, 13, 14, 15, 16, 17, 18, 19, 20, 21, 22, 23, 24, 25, 26, 27, 28, 29, 30, 31, 32, 33, 34, 35, 36, 37, 38, 39, 40, 41, 42, 43, 44, 45, 46, 47, 48, 49, 50, 51, 52, 53, 54, 55, 56, 57, 58, 59, 60, 61, 62, 63, 64, 65, 66, 67, 68, 69, 70, 71, 72, 73, 74, 75, 76, 77, 78, 79, 80, 81, 82, 83, 84, 85, 86, 87, 88, 89, 90, 91, 92, 93, 94, 95, 96, 97, 98, 99, 100, 101, 102, 103, 104, 105, 106, 107, 108, 109, 110, 111, 112, 113, 114, 115, 116, 117, 118, 119, 120, 121, 122, 123, 124, 125, 126, 127, 128, 129, 130, 131, 132, 133, 134, 135, 136, 137, 138, 139, 140, 141, 142, 143, 144, 145, 146, 147, 148, 149, 150, 151, 152, 153, 154, 155, 156, 157, 158, 159, 160, 161, 162, 163, 164, 165, 166, 167, 168, 169, 170, 171, 172, 173, 174, 175, 176, 177, 178, 179, 180, 181, 182, 183, 184, 185, 186, 187, 188, 189, 190, 191, 192, 193, 194, 195, 196, 197, 198, 199, 200, 201, 202, 203, 204, 205, 206, 207, 208, 209, 210, 211, 212, 213, 214, 215, 216, 217, 218, 219, 220, 221, 222, 223, 224, 225, 226, 227, 228, 229, 230, 231, 232, 233, 234, 235, 236, 237, 238, 239, 240, 241, 242, 243, 244, 245, 246, 247, 248, 249, 250, 251, 252, 253, 254, 255, 256, 257, 258, 259, 260, 261, 262, 263, 264, 265, 266, 267, 268, 269, 270, 271, 272, 273, 274, 275, 276, 277, 278, 279, 280, 281, 282, 283, 284, 285, 286, 287, 288, 289, 290, 291, 292, 293, 294, 295, 296, 297, 298, 299, 300, 301, 302, 303, 304, 305, 306, 307, 308, 309, 310, 311, 312, 313, 314, 315, 316, 317, 318, 319, 320, 321, 322, 323, 324, 325, 326, 327, 328, 329, 330, 331, 332, 333, 334, 335, 336, 337, 338, 339, 340, 341, 342, 343, 344, 345, 346, 347, 348, 349, 350, 351, 352, 353, 354, 355, 356, 357, 358, 359, 360, 361, 362, 363, 364, 365, 366, 367, 368, 369, 370, 371, 372, 373, 374, 375, 376, 377, 378, 379, 380, 381, 382, 383, 384, 385, 386, 387, 388, 389, 390, 391, 392, 393, 394, 395, 396, 397, 398, 399, 400, 401, 402, 403, 404, 405, 406, 407, 408, 409, 410, 411, 412, 413, 414, 415, 416, 417, 418, 419, 420, 421, 422, 423, 424, 425, 426, 427, 428, 429, 430, 431, 432, 433, 434, 435, 436, 437, 438, 439, 440, 441, 442, 443, 444, 445, 446, 447, 448, 449, 450, 451, 452, 453, 454, 455, 456, 457, 458, 459, 460, 461, 462, 463, 464, 465, 466, 467, 468, 469, 470, 471, 472, 473, 474, 475, 476, 477, 478, 479, 480, 481, 482, 483, 484, 485, 486, 487, 488, 489, 490, 491, 492, 493, 494, 495, 496, 497, 498, 499, 500, 501, 502, 503, 504, 505, 506, 507, 508, 509, 510, 511, 512, 513, 514, 515, 516, 517, 518, 519, 520, 521, 522, 523, 524, 525, 526, 527, 528, 529, 530, 531, 532, 533, 534, 535, 536, 537, 538, 539, 540, 541, 542, 543, 544, 545, 546, 547, 548, 549, 550, 551, 552, 553, 554, 555, 556, 557, 558, 559, 560, 561, 562, 563, 564, 565, 566, 567, 568, 569, 570, 571, 572, 573, 574, 575, 576, 577, 578, 579, 580, 581, 582, 583, 584, 585, 586, 587, 588, 589, 590, 591, 592, 593, 594, 595, 596, 597, 598, 599, 600, 601, 602, 603, 604, 605, 606, 607, 608, 609, 610, 611, 612, 613, 614, 615, 616, 617, 618, 619, 620, 621, 622, 623, 624, 625, 626, 627, 628, 629, 630, 631, 632, 633, 634, 635, 636, 637, 638, 639, 640, 641, 642, 643, 644, 645, 646, 647, 648, 649, 650, 651, 652, 653, 654, 655, 656, 657, 658, 659, 660, 661, 662, 663, 664, 665, 666, 667, 668, 669, 670, 671, 672, 673, 674, 675, 676, 677, 678, 679, 680, 681, 682, 683, 684, 685, 686, 687, 688, 689, 690, 691, 692, 693, 694, 695, 696, 697, 698, 699, 700, 701, 702, 703, 704, 705, 706, 707, 708, 709, 710, 711, 712, 713, 714, 715, 716, 717, 718, 719, 720, 721, 722, 723, 724, 725, 726, 727, 728, 729, 730, 731, 732, 733, 734, 735, 736, 737, 738, 739, 740, 741, 742, 743, 744, 745, 746, 747, 748, 749, 750, 751, 752, 753, 754, 755, 756, 757, 758, 759, 760, 761, 762, 763, 764, 765, 766, 767, 768, 769, 770, 771, 772, 773, 774, 775, 776, 777, 778, 779, 780, 781, 782, 783, 784, 785, 786, 787, 788, 789, 790, 791, 792, 793, 794, 795, 796, 797, 798, 799, 800, 801, 802, 803, 804, 805, 806, 807, 808, 809, 810, 811, 812, 813, 814, 815, 816, 817, 818, 819, 820, 821, 822, 823, 824, 825, 826, 827, 828, 829, 830, 831, 832, 833, 834, 835, 836, 837, 838, 839, 840, 841, 842, 843, 844, 845, 846, 847, 848, 849, 850, 851, 852, 853, 854, 855, 856, 857, 858, 859, 860, 861, 862, 863, 864, 865, 866, 867, 868, 869, 870, 871, 872, 873, 874, 875, 876, 877, 878, 879, 880, 881, 882, 883, 884, 885, 886, 887, 888, 889, 890, 891, 892, 893, 894, 895, 896, 897, 898, 899, 900, 901, 902, 903, 904, 905, 906, 907, 908, 909, 910, 911, 912, 913, 914, 915, 916, 917, 918, 919, 920, 921, 922, 923, 924, 925, 926, 927, 928, 929, 930, 931, 932, 933, 934, 935, 936, 937, 938, 939, 940, 941, 942, 943, 944, 945, 946, 947, 948, 949, 950, 951, 952, 953, 954, 955, 956, 957, 958, 959, 960, 961, 962, 963, 964, 965, 966, 967, 968, 969, 970, 971, 972, 973, 974, 975, 976, 977, 978, 979, 980, 981, 982, 983, 984, 985, 986, 987, 988, 989, 990, 991, 992, 993, 994, 995, 996, 997, 998, 999, 1000, 1001, 1002, 1003, 1004, 1005, 1006, 1007, 1008, 1009, 1010, 1011, 1012, 1013, 1014, 1015, 1016, 1017, 1018, 1019, 1020, 1021, 1022, 1023, 1024, 1025, 1026, 1027, 1028, 1029, 1030, 1031, 1032, 1033, 1034, 1035, 1036, 1037, 1038, 1039, 1040, 1041, 1042, 1043, 1044, 1045, 1046, 1047, 1048, 1049, 1050, 1051, 1052, 1053, 1054, 1055, 1056, 1057, 1058, 1059, 1060, 1061, 1062, 1063, 1064, 1065, 1066, 1067, 1068, 1069, 1070, 1071, 1072, 1073, 1074, 1075, 1076, 1077, 1078, 1079, 1080, 1081, 1082, 1083, 1084, 1085, 1086, 1087, 1088, 1089, 1090, 1091, 1092, 1093, 1094, 1095, 1096, 1097, 1098, 1099, 1100, 1101, 1102, 1103, 1104, 1105, 1106, 1107, 1108, 1109, 1110, 1111, 1112, 1113, 1114, 1115, 1116, 1117, 1118, 1119, 1120, 1121, 1122, 1123, 1124, 1125, 1126, 1127, 1128, 1129, 1130, 1131, 1132, 1133, 1134, 1135, 1136, 1137, 1138, 1139, 1140, 1141, 1142, 1143, 1144, 1145, 1146, 1147, 1148, 1149, 1150, 1151, 1152, 1153, 1154, 1155, 1156, 1157, 1158, 1159, 1160, 1161, 1162, 1163, 1164, 1165, 1166, 1167, 1168, 1169, 1170, 1171, 1172, 1173, 1174, 1175, 1176, 1177, 1178, 1179, 1180, 1181, 1182, 1183, 1184, 1185, 1186, 1187, 1188, 1189, 1190, 1191, 1192, 1193, 1194, 1195, 1196, 1197, 1198, 1199, 1200, 1201, 1202, 1203, 1204, 1205, 1206, 1207, 1208, 1209, 1210, 1211, 1212, 1213, 1214, 1215, 1216, 1217, 1218, 1219, 1220, 1221, 1222, 1223, 1224, 1225, 1226, 1227, 1228, 1229, 1230, 1231, 1232, 1233, 1234, 1235, 1236, 1237, 1238, 1239, 1240, 1241, 1242, 1243, 1244, 1245, 1246, 1247, 1248, 1249, 1250, 1251, 1252, 1253, 1254, 1255, 1256, 1257, 1258, 1259, 1260, 1261, 1262, 1263, 1264, 1265, 1266, 1267, 1268, 1269, 1270, 1271, 1272, 1273, 1274, 1275, 1276, 1277, 1278, 1279, 1280, 1281, 1282, 1283, 1284, 1285, 1286, 1287, 1288, 1289, 1290, 1291, 1292, 1293, 1294, 1295, 1296, 1297, 1298, 1299, 1300, 1301, 1302, 1303, 1304, 1305, 1306, 1307, 1308, 1309, 1310, 1311, 1312, 1313, 1314, 1315, 1316, 1317, 1318, 1319, 1320, 1321, 1322, 1323, 1324, 1325, 1326, 1327, 1328, 1329, 1330, 1331, 1332, 1333, 1334, 1335, 1336, 1337, 1338, 1339, 1340, 1341, 1342, 1343, 1344, 1345, 1346, 1347, 1348, 1349, 1350, 1351, 1352, 1353, 1354, 1355, 1356, 1357, 1358, 1359, 1360, 1361, 1362, 1363, 1364, 1365, 1366, 1367, 1368, 1369],
      "AcquisitionTime": ["191943.572500", "191945.572500", "191947.572500", "191949.572500", "191951.572500", "191953.572500", "191955.572500", "191957.572500", "191959.572500", "192001.572500", "192003.572500", "192005.572500", "192007.572500", "192009.572500", "192011.572500", "192013.572500", "192015.572500", "192017.572500", "192019.572500", "192021.572500", "192023.572500", "192025.572500", "192027.572500", "192029.572500", "192031.572500", "192033.572500", "192035.572500", "192037.572500", "192039.572500", "192041.572500", "192043.572500", "192045.572500", "192047.572500", "192049.572500", "192051.572500", "192053.572500", "192055.572500", "192057.572500", "192059.572500", "192101.572500", "192103.572500", "192105.572500", "192107.572500", "192109.572500", "192111.572500", "192113.572500", "192115.572500", "192117.572500", "192119.572500", "192121.572500", "192123.572500", "192125.572500", "192127.572500", "192129.572500", "192131.572500", "192133.572500", "192135.572500", "192137.572500", "192139.572500", "192141.572500", "192143.572500", "192145.572500", "192147.572500", "192149.572500", "192151.572500", "192153.572500", "192155.572500", "192157.572500", "192159.572500", "192201.572500", "192203.572500", "192205.572500", "192207.572500", "192209.572500", "192211.572500", "192213.572500", "192215.572500", "192217.572500", "192219.572500", "192221.572500", "192223.572500", "192225.572500", "192227.572500", "192229.572500", "192231.572500", "192233.572500", "192235.572500", "192237.572500", "192239.572500", "192241.572500", "192243.572500", "192245.572500", "192247.572500", "192249.572500", "192251.572500", "192253.572500", "192255.572500", "192257.572500", "192259.572500", "192301.572500", "192303.572500", "192305.572500", "192307.572500", "192309.572500", "192311.572500", "192313.572500", "192315.572500", "192317.572500", "192319.572500", "192321.572500", "192323.572500", "192325.572500", "192327.572500", "192329.572500", "192331.572500", "192333.572500", "192335.572500", "192337.572500", "192339.572500", "192341.572500", "192343.572500", "192345.572500", "192347.572500", "192349.572500", "192351.572500", "192353.572500", "192355.572500", "192357.572500", "192359.572500", "192401.572500", "192403.572500", "192405.572500", "192407.572500", "192409.572500", "192411.572500", "192413.572500", "192415.572500", "192417.572500", "192419.572500", "192421.572500", "192423.572500", "192425.572500", "192427.572500", "192429.572500", "192431.572500", "192433.572500", "192435.572500", "192437.572500", "192439.572500", "192441.572500", "192443.572500", "192445.572500", "192447.572500", "192449.572500", "192451.572500", "192453.572500", "192455.572500", "192457.572500", "192459.572500", "192501.572500", "192503.572500", "192505.572500", "192507.572500", "192509.572500", "192511.572500", "192513.572500", "192515.572500", "192517.572500", "192519.572500", "192521.572500", "192523.572500", "192525.572500", "192527.572500", "192529.572500", "192531.572500", "192533.572500", "192535.572500", "192537.572500", "192539.572500", "192541.572500", "192543.572500", "192545.572500", "192547.572500", "192549.572500", "192551.572500", "192553.572500", "192555.572500", "192557.572500", "192559.572500", "192601.572500", "192603.572500", "192605.572500", "192607.572500", "192609.572500", "192611.572500", "192613.572500", "192615.572500", "192617.572500", "192619.572500", "192621.572500", "192623.572500", "192625.572500", "192627.572500", "192629.572500", "192631.572500", "192633.572500", "192635.572500", "192637.572500", "192639.572500", "192641.572500", "192643.572500", "192645.572500", "192647.572500", "192649.572500", "192651.572500", "192653.572500", "192655.572500", "192657.572500", "192659.572500", "192701.572500", "192703.572500", "192705.572500", "192707.572500", "192709.572500", "192711.572500", "192713.572500", "192715.572500", "192717.572500", "192719.572500", "192721.572500", "192723.572500", "192725.572500", "192727.572500", "192729.572500", "192731.572500", "192733.572500", "192735.572500", "192737.572500", "192739.572500", "192741.572500", "192743.572500", "192745.572500", "192747.572500", "192749.572500", "192751.572500", "192753.572500", "192755.572500", "192757.572500", "192759.572500", "192801.572500", "192803.572500", "192805.572500", "192807.572500", "192809.572500", "192811.572500", "192813.572500", "192815.572500", "192817.572500", "192819.572500", "192821.572500", "192823.572500", "192825.572500", "192827.572500", "192829.572500", "192831.572500", "192833.572500", "192835.572500", "192837.572500", "192839.572500", "192841.572500", "192843.572500", "192845.572500", "192847.572500", "192849.572500", "192851.572500", "192853.572500", "192855.572500", "192857.572500", "192859.572500", "192901.572500", "192903.572500", "192905.572500", "192907.572500", "192909.572500", "192911.572500", "192913.572500", "192915.572500", "192917.572500", "192919.572500", "192921.572500", "192923.572500", "192925.572500", "192927.572500", "192929.572500", "192931.572500", "192933.572500", "192935.572500", "192937.572500", "192939.572500", "192941.572500", "192943.572500", "192945.572500", "192947.572500", "192949.572500", "192951.572500", "192953.572500", "192955.572500", "192957.572500", "192959.572500", "193001.572500", "193003.572500", "193005.572500", "193007.572500", "193009.572500", "193011.572500", "193013.572500", "193015.572500", "193017.572500", "193019.572500", "193021.572500", "193023.572500", "193025.572500", "193027.572500", "193029.572500", "193031.572500", "193033.572500", "193035.572500", "193037.572500", "193039.572500", "193041.572500", "193043.572500", "193045.572500", "193047.572500", "193049.572500", "193051.572500", "193053.572500", "193055.572500", "193057.572500", "193059.572500", "193101.572500", "193103.572500", "193105.572500", "193107.572500", "193109.572500", "193111.572500", "193113.572500", "193115.572500", "193117.572500", "193119.572500", "193121.572500", "193123.572500", "193125.572500", "193127.572500", "193129.572500", "193131.572500", "193133.572500", "193135.572500", "193137.572500", "193139.572500", "193141.572500", "193143.572500", "193145.572500", "193147.572500", "193149.572500", "193151.572500", "193153.572500", "193155.572500", "193157.572500", "193159.572500", "193201.572500", "193203.572500", "193205.572500", "193207.572500", "193209.572500", "193211.572500", "193213.572500", "193215.572500", "193217.572500", "193219.572500", "193221.572500", "193223.572500", "193225.572500", "193227.572500", "193229.572500", "193231.572500", "193233.572500", "193235.572500", "193237.572500", "193239.572500", "193241.572500", "193243.572500", "193245.572500", "193247.572500", "193249.572500", "193251.572500", "193253.572500", "193255.572500", "193257.572500", "193259.572500", "193301.572500", "193303.572500", "193305.572500", "193307.572500", "193309.572500", "193311.572500", "193313.572500", "193315.572500", "193317.572500", "193319.572500", "193321.572500", "193323.572500", "193325.572500", "193327.572500", "193329.572500", "193331.572500", "193333.572500", "193335.572500", "193337.572500", "193339.572500", "193341.572500", "193343.572500", "193345.572500", "193347.572500", "193349.572500", "193351.572500", "193353.572500", "193355.572500", "193357.572500", "193359.572500", "193401.572500", "193403.572500", "193405.572500", "193407.572500", "193409.572500", "193411.572500", "193413.572500", "193415.572500", "193417.572500", "193419.572500", "193421.572500", "193423.572500", "193425.572500", "193427.572500", "193429.572500", "193431.572500", "193433.572500", "193435.572500", "193437.572500", "193439.572500", "193441.572500", "193443.572500", "193445.572500", "193447.572500", "193449.572500", "193451.572500", "193453.572500", "193455.572500", "193457.572500", "193459.572500", "193501.572500", "193503.572500", "193505.572500", "193507.572500", "193509.572500", "193511.572500", "193513.572500", "193515.572500", "193517.572500", "193519.572500", "193521.572500", "193523.572500", "193525.572500", "193527.572500", "193529.572500", "193531.572500", "193533.572500", "193535.572500", "193537.572500", "193539.572500", "193541.572500", "193543.572500", "193545.572500", "193547.572500", "193549.572500", "193551.572500", "193553.572500", "193555.572500", "193557.572500", "193559.572500", "193601.572500", "193603.572500", "193605.572500", "193607.572500", "193609.572500", "193611.572500", "193613.572500", "193615.572500", "193617.572500", "193619.572500", "193621.572500", "193623.572500", "193625.572500", "193627.572500", "193629.572500", "193631.572500", "193633.572500", "193635.572500", "193637.572500", "193639.572500", "193641.572500", "193643.572500", "193645.572500", "193647.572500", "193649.572500", "193651.572500", "193653.572500", "193655.572500", "193657.572500", "193659.572500", "193701.572500", "193703.572500", "193705.572500", "193707.572500", "193709.572500", "193711.572500", "193713.572500", "193715.572500", "193717.572500", "193719.572500", "193721.572500", "193723.572500", "193725.572500", "193727.572500", "193729.572500", "193731.572500", "193733.572500", "193735.572500", "193737.572500", "193739.572500", "193741.572500", "193743.572500", "193745.572500", "193747.572500", "193749.572500", "193751.572500", "193753.572500", "193755.572500", "193757.572500", "193759.572500", "193801.572500", "193803.572500", "193805.572500", "193807.572500", "193809.572500", "193811.572500", "193813.572500", "193815.572500", "193817.572500", "193819.572500", "193821.572500", "193823.572500", "193825.572500", "193827.572500", "193829.572500", "193831.572500", "193833.572500", "193835.572500", "193837.572500", "193839.572500", "193841.572500", "193843.572500", "193845.572500", "193847.572500", "193849.572500", "193851.572500", "193853.572500", "193855.572500", "193857.572500", "193859.572500", "193901.572500", "193903.572500", "193905.572500", "193907.572500", "193909.572500", "193911.572500", "193913.572500", "193915.572500", "193917.572500", "193919.572500", "193921.572500", "193923.572500", "193925.572500", "193927.572500", "193929.572500", "193931.572500", "193933.572500", "193935.572500", "193937.572500", "193939.572500", "193941.572500", "193943.572500", "193945.572500", "193947.572500", "193949.572500", "193951.572500", "193953.572500", "193955.572500", "193957.572500", "193959.572500", "194001.572500", "194003.572500", "194005.572500", "194007.572500", "194009.572500", "194011.572500", "194013.572500", "194015.572500", "194017.572500", "194019.572500", "194021.572500", "194023.572500", "194025.572500", "194027.572500", "194029.572500", "194031.572500", "194033.572500", "194035.572500", "194037.572500", "194039.572500", "194041.572500", "194043.572500", "194045.572500", "194047.572500", "194049.572500", "194051.572500", "194053.572500", "194055.572500", "194057.572500", "194059.572500", "194101.572500", "194103.572500", "194105.572500", "194107.572500", "194109.572500", "194111.572500", "194113.572500", "194115.572500", "194117.572500", "194119.572500", "194121.572500", "194123.572500", "194125.572500", "194127.572500", "194129.572500", "194131.572500", "194133.572500", "194135.572500", "194137.572500", "194139.572500", "194141.572500", "194143.572500", "194145.572500", "194147.572500", "194149.572500", "194151.572500", "194153.572500", "194155.572500", "194157.572500", "194159.572500", "194201.572500", "194203.572500", "194205.572500", "194207.572500", "194209.572500", "194211.572500", "194213.572500", "194215.572500", "194217.572500", "194219.572500", "194221.572500", "194223.572500", "194225.572500", "194227.572500", "194229.572500", "194231.572500", "194233.572500", "194235.572500", "194237.572500", "194239.572500", "194241.572500", "194243.572500", "194245.572500", "194247.572500", "194249.572500", "194251.572500", "194253.572500", "194255.572500", "194257.572500", "194259.572500", "194301.572500", "194303.572500", "194305.572500", "194307.572500", "194309.572500", "194311.572500", "194313.572500", "194315.572500", "194317.572500", "194319.572500", "194321.572500", "194323.572500", "194325.572500", "194327.572500", "194329.572500", "194331.572500", "194333.572500", "194335.572500", "194337.572500", "194339.572500", "194341.572500", "194343.572500", "194345.572500", "194347.572500", "194349.572500", "194351.572500", "194353.572500", "194355.572500", "194357.572500", "194359.572500", "194401.572500", "194403.572500", "194405.572500", "194407.572500", "194409.572500", "194411.572500", "194413.572500", "194415.572500", "194417.572500", "194419.572500", "194421.572500", "194423.572500", "194425.572500", "194427.572500", "194429.572500", "194431.572500", "194433.572500", "194435.572500", "194437.572500", "194439.572500", "194441.572500", "194443.572500", "194445.572500", "194447.572500", "194449.572500", "194451.572500", "194453.572500", "194455.572500", "194457.572500", "194459.572500", "194501.572500", "194503.572500", "194505.572500", "194507.572500", "194509.572500", "194511.572500", "194513.572500", "194515.572500", "194517.572500", "194519.572500", "194521.572500", "194523.572500", "194525.572500", "194527.572500", "194529.572500", "194531.572500", "194533.572500", "194535.572500", "194537.572500", "194539.572500", "194541.572500", "194543.572500", "194545.572500", "194547.572500", "194549.572500", "194551.572500", "194553.572500", "194555.572500", "194557.572500", "194559.572500", "194601.572500", "194603.572500", "194605.572500", "194607.572500", "194609.572500", "194611.572500", "194613.572500", "194615.572500", "194617.572500", "194619.572500", "194621.572500", "194623.572500", "194625.572500", "194627.572500", "194629.572500", "194631.572500", "194633.572500", "194635.572500", "194637.572500", "194639.572500", "194641.572500", "194643.572500", "194645.572500", "194647.572500", "194649.572500", "194651.572500", "194653.572500", "194655.572500", "194657.572500", "194659.572500", "194701.572500", "194703.572500", "194705.572500", "194707.572500", "194709.572500", "194711.572500", "194713.572500", "194715.572500", "194717.572500", "194719.572500", "194721.572500", "194723.572500", "194725.572500", "194727.572500", "194729.572500", "194731.572500", "194733.572500", "194735.572500", "194737.572500", "194739.572500", "194741.572500", "194743.572500", "194745.572500", "194747.572500", "194749.572500", "194751.572500", "194753.572500", "194755.572500", "194757.572500", "194759.572500", "194801.572500", "194803.572500", "194805.572500", "194807.572500", "194809.572500", "194811.572500", "194813.572500", "194815.572500", "194817.572500", "194819.572500", "194821.572500", "194823.572500", "194825.572500", "194827.572500", "194829.572500", "194831.572500", "194833.572500", "194835.572500", "194837.572500", "194839.572500", "194841.572500", "194843.572500", "194845.572500", "194847.572500", "194849.572500", "194851.572500", "194853.572500", "194855.572500", "194857.572500", "194859.572500", "194901.572500", "194903.572500", "194905.572500", "194907.572500", "194909.572500", "194911.572500", "194913.572500", "194915.572500", "194917.572500", "194919.572500", "194921.572500", "194923.572500", "194925.572500", "194927.572500", "194929.572500", "194931.572500", "194933.572500", "194935.572500", "194937.572500", "194939.572500", "194941.572500", "194943.572500", "194945.572500", "194947.572500", "194949.572500", "194951.572500", "194953.572500", "194955.572500", "194957.572500", "194959.572500", "195001.572500", "195003.572500", "195005.572500", "195007.572500", "195009.572500", "195011.572500", "195013.572500", "195015.572500", "195017.572500", "195019.572500", "195021.572500", "195023.572500", "195025.572500", "195027.572500", "195029.572500", "195031.572500", "195033.572500", "195035.572500", "195037.572500", "195039.572500", "195041.572500", "195043.572500", "195045.572500", "195047.572500", "195049.572500", "195051.572500", "195053.572500", "195055.572500", "195057.572500", "195059.572500", "195101.572500", "195103.572500", "195105.572500", "195107.572500", "195109.572500", "195111.572500", "195113.572500", "195115.572500", "195117.572500", "195119.572500", "195121.572500", "195123.572500", "195125.572500", "195127.572500", "195129.572500", "195131.572500", "195133.572500", "195135.572500", "195137.572500", "195139.572500", "195141.572500", "195143.572500", "195145.572500", "195147.572500", "195149.572500", "195151.572500", "195153.572500", "195155.572500", "195157.572500", "195159.572500", "195201.572500", "195203.572500", "195205.572500", "195207.572500", "195209.572500", "195211.572500", "195213.572500", "195215.572500", "195217.572500", "195219.572500", "195221.572500", "195223.572500", "195225.572500", "195227.572500", "195229.572500", "195231.572500", "195233.572500", "195235.572500", "195237.572500", "195239.572500", "195241.572500", "195243.572500", "195245.572500", "195247.572500", "195249.572500", "195251.572500", "195253.572500", "195255.572500", "195257.572500", "195259.572500", "195301.572500", "195303.572500", "195305.572500", "195307.572500", "195309.572500", "195311.572500", "195313.572500", "195315.572500", "195317.572500", "195319.572500", "195321.572500", "195323.572500", "195325.572500", "195327.572500", "195329.572500", "195331.572500", "195333.572500", "195335.572500", "195337.572500", "195339.572500", "195341.572500", "195343.572500", "195345.572500", "195347.572500", "195349.572500", "195351.572500", "195353.572500", "195355.572500", "195357.572500", "195359.572500", "195401.572500", "195403.572500", "195405.572500", "195407.572500", "195409.572500", "195411.572500", "195413.572500", "195415.572500", "195417.572500", "195419.572500", "195421.572500", "195423.572500", "195425.572500", "195427.572500", "195429.572500", "195431.572500", "195433.572500", "195435.572500", "195437.572500", "195439.572500", "195441.572500", "195443.572500", "195445.572500", "195447.572500", "195449.572500", "195451.572500", "195453.572500", "195455.572500", "195457.572500", "195459.572500", "195501.572500", "195503.572500", "195505.572500", "195507.572500", 