{
  "AcquisitionMatrixPE": 80,
  "AcquisitionNumber": 1,
  "AcquisitionTime": "19:29:58.197500",
  "BandwidthPerPixelPhaseEncode": 51.02,
  "BaseResolution": 80,
  "BodyPartExamined": "BRAIN",
  "ConsistencyInfo": "N4_VE11C_LATEST_20160120",
  "ConversionSoftware": "dcm2niix",
  "ConversionSoftwareVersion": "v1.0.20170923 (OpenJPEG build) GCC6.3.0",
  "DerivedVendorReportedEchoSpacing": 0.000490004,
  "DeviceSerialNumber": "66112",
  "DwellTime": 2.2e-06,
  "EchoTime": 0.025,
  "EchoTrainLength": 39,
  "EffectiveEchoSpacing": 0.000245002,
  "FlipAngle": 75,
  "ImageType": [
    "ORIGINAL",
    "PRIMARY",
    "FMRI",
    "NONE",
    "ND",
    "NORM",
    "MOSAIC"
],
  "InstitutionAddress": "Maynard_3_Hanover_NH_US_03755",
  "InstitutionName": "Dartmouth_College_-_PBS",
  "MagneticFieldStrength": 3,
  "Manufacturer": "Siemens",
  "ManufacturersModelName": "Prisma",
  "Modality": "MR",
  "ParallelReductionFactorInPlane": 2,
  "PartialFourier": 1,
  "PercentPhaseFOV": 100,
  "PhaseEncodingDirection": "j-",
  "PhaseEncodingSteps": 79,
  "PhaseResolution": 1,
  "ProcedureStepDescription": "Chang_Chang_1039_fnlpilot",
  "ProtocolName": "func_run-01_task-movie",
  "PulseSequenceDetails": "%SiemensSeq%_ep2d_bold",
  "ReceiveCoilActiveElements": "HEA;HEP",
  "ReceiveCoilName": "Head_32",
  "ReconMatrixPE": 80,
  "RepetitionTime": 2,
  "ScanOptions": "FS",
  "ScanningSequence": "EP",
  "SequenceName": "_epfid2d1_80",
  "SequenceVariant": "SK",
  "SeriesDescription": "func_run-01_task-movie",
  "SliceTiming": [0.99, 0, 1.04, 0.05, 1.09, 0.1, 1.1375, 0.1475, 1.1875, 0.1975, 1.2375, 0.2475, 1.2875, 0.2975, 1.3375, 0.3475, 1.385, 0.395, 1.435, 0.445, 1.485, 0.495, 1.535, 0.545, 1.585, 0.595, 1.6325, 0.6425, 1.6825, 0.6925, 1.7325, 0.7425, 1.7825, 0.7925, 1.8325, 0.8425, 1.88, 0.89, 1.93, 0.94],
  "SoftwareVersions": "syngo_MR_E11",
  "StationName": "AWP66112",
  "TaskName": "movie",
  "TotalReadoutTime": 0.0193552,
  "dcmmeta_affine": [
    [-2.9982962608337402, 0.07275334000587463, 0.0701853409409523, 118.97760772705078],
    [0.06318642199039459, 2.974630355834961, -0.38416382670402527, -99.13752746582031],
    [0.07890821248292923, 0.3824674189090729, 2.974473476409912, -82.00560760498047],
    [0.0, 0.0, 0.0, 1.0]
],
  "dcmmeta_reorient_transform": [
    [0.0, -1.0, 0.0, 79.0],
    [1.0, 0.0, 0.0, 0.0],
    [0.0, 0.0, 1.0, 0.0],
    [0.0, 0.0, 0.0, 1.0]
],
  "dcmmeta_shape": [80, 80, 40, 1369],
  "dcmmeta_slice_dim": 2,
  "dcmmeta_version": 0.6,
  "global": {
    "const": {
      "AccessionNumber": "A001080",
      "AcquisitionMatrix": [80, 0, 0, 80],
      "AngioFlag": "N",
      "BitsAllocated": 16,
      "BitsStored": 12,
      "BodyPartExamined": "BRAIN",
      "Columns": 560,
      "EchoNumbers": 1,
      "EchoTime": 25.0,
      "EchoTrainLength": 39,
      "FlipAngle": 75.0,
      "HighBit": 11,
      "ImageOrientationPatient": [0.9994321148566, -0.0210621400995, 0.02630273840665, 0.02425111234099, 0.99154344443836, -0.1274891420535],
      "ImagePositionPatient": [-861.77704604552, -834.60480833999, 21.063527000353],
      "ImageType": [
        "ORIGINAL",
        "PRIMARY",
        "FMRI",
        "NONE",
        "ND",
        "NORM",
        "MOSAIC"
],
      "ImagedNucleus": "1H",
      "ImagingFrequency": 123.25225,
      "InPlanePhaseEncodingDirection": "COL",
      "MRAcquisitionType": "2D",
      "MagneticFieldStrength": 3.0,
      "Manufacturer": "SIEMENS",
      "ManufacturerModelName": "Prisma",
      "Modality": "MR",
      "NumberOfAverages": 1.0,
      "NumberOfPhaseEncodingSteps": 79,
      "PercentPhaseFieldOfView": 100.0,
      "PercentSampling": 100.0,
      "PerformedProcedureStepStartTime": "191622.907000",
      "PhotometricInterpretation": "MONOCHROME2",
      "PixelBandwidth": 2840.0,
      "PixelRepresentation": 0,
      "PixelSpacing": [3.0, 3.0],
      "PositionReferenceIndicator": "",
      "ProtocolName": "func_run-01_task-movie",
      "RepetitionTime": 2000.0,
      "Rows": 560,
      "SAR": 0.09018241397925,
      "SamplesPerPixel": 1,
      "ScanOptions": "FS",
      "ScanningSequence": "EP",
      "SequenceName": "*epfid2d1_80",
      "SequenceVariant": "SK",
      "SeriesDescription": "func_run-01_task-movie",
      "SeriesNumber": 9,
      "SeriesTime": "192959.708000",
      "SliceLocation": -65.829323793142,
      "SliceThickness": 3.0,
      "SmallestImagePixelValue": 0,
      "SoftwareVersions": "syngo MR E11",
      "SpacingBetweenSlices": 2.9999999884846,
      "SpecificCharacterSet": "ISO_IR 100",
      "StudyID": "1",
      "StudyTime": "191622.845000",
      "TransmitCoilName": "Body",
      "VariableFlipAngleFlag": "N",
      "WindowCenterWidthExplanation": "Algo1",
      "dBdt": 0.0},
    "slices": {}
  },
  "time": {
    "samples": {
      "AcquisitionNumber": [1, 2, 3, 4, 5, 6, 7, 8, 9, 10, 11, 12, 13, 14, 15, 16, 17, 18, 19, 20, 21, 22, 23, 24, 25, 26, 27, 28, 29, 30, 31, 32, 33, 34, 35, 36, 37, 38, 39, 40, 41, 42, 43, 44, 45, 46, 47, 48, 49, 50, 51, 52, 53, 54, 55, 56, 57, 58, 59, 60, 61, 62, 63, 64, 65, 66, 67, 68, 69, 70, 71, 72, 73, 74, 75, 76, 77, 78, 79, 80, 81, 82, 83, 84, 85, 86, 87, 88, 89, 90, 91, 92, 93, 94, 95, 96, 97, 98, 99, 100, 101, 102, 103, 104, 105, 106, 107, 108, 109, 110, 111, 112, 113, 114, 115, 116, 117, 118, 119, 120, 121, 122, 123, 124, 125, 126, 127, 128, 129, 130, 131, 132, 133, 134, 135, 136, 137, 138, 139, 140, 141, 142, 143, 144, 145, 146, 147, 148, 149, 150, 151, 152, 153, 154, 155, 156, 157, 158, 159, 160, 161, 162, 163, 164, 165, 166, 167, 168, 169, 170, 171, 172, 173, 174, 175, 176, 177, 178, 179, 180, 181, 182, 183, 184, 185, 186, 187, 188, 189, 190, 191, 192, 193, 194, 195, 196, 197, 198, 199, 200, 201, 202, 203, 204, 205, 206, 207, 208, 209, 210, 211, 212, 213, 214, 215, 216, 217, 218, 219, 220, 221, 222, 223, 224, 225, 226, 227, 228, 229, 230, 231, 232, 233, 234, 235, 236, 237, 238, 239, 240, 241, 242, 243, 244, 245, 246, 247, 248, 249, 250, 251, 252, 253, 254, 255, 256, 257, 258, 259, 260, 261, 262, 263, 264, 265, 266, 267, 268, 269, 270, 271, 272, 273, 274, 275, 276, 277, 278, 279, 280, 281, 282, 283, 284, 285, 286, 287, 288, 289, 290, 291, 292, 293, 294, 295, 296, 297, 298, 299, 300, 301, 302, 303, 304, 305, 306, 307, 308, 309, 310, 311, 312, 313, 314, 315, 316, 317, 318, 319, 320, 321, 322, 323, 324, 325, 326, 327, 328, 329, 330, 331, 332, 333, 334, 335, 336, 337, 338, 339, 340, 341, 342, 343, 344, 345, 346, 347, 348, 349, 350, 351, 352, 353, 354, 355, 356, 357, 358, 359, 360, 361, 362, 363, 364, 365, 366, 367, 368, 369, 370, 371, 372, 373, 374, 375, 376, 377, 378, 379, 380, 381, 382, 383, 384, 385, 386, 387, 388, 389, 390, 391, 392, 393, 394, 395, 396, 397, 398, 399, 400, 401, 402, 403, 404, 405, 406, 407, 408, 409, 410, 411, 412, 413, 414, 415, 416, 417, 418, 419, 420, 421, 422, 423, 424, 425, 426, 427, 428, 429, 430, 431, 432, 433, 434, 435, 436, 437, 438, 439, 440, 441, 442, 443, 444, 445, 446, 447, 448, 449, 450, 451, 452, 453, 454, 455, 456, 457, 458, 459, 460, 461, 462, 463, 464, 465, 466, 467, 468, 469, 470, 471, 472, 473, 474, 475, 476, 477, 478, 479, 480, 481, 482, 483, 484, 485, 486, 487, 488, 489, 490, 491, 492, 493, 494, 495, 496, 497, 498, 499, 500, 501, 502, 503, 504, 505, 506, 507, 508, 509, 510, 511, 512, 513, 514, 515, 516, 517, 518, 519, 520, 521, 522, 523, 524, 525, 526, 527, 528, 529, 530, 531, 532, 533, 534, 535, 536, 537, 538, 539, 540, 541, 542, 543, 544, 545, 546, 547, 548, 549, 550, 551, 552, 553, 554, 555, 556, 557, 558, 559, 560, 561, 562, 563, 564, 565, 566, 567, 568, 569, 570, 571, 572, 573, 574, 575, 576, 577, 578, 579, 580, 581, 582, 583, 584, 585, 586, 587, 588, 589, 590, 591, 592, 593, 594, 595, 596, 597, 598, 599, 600, 601, 602, 603, 604, 605, 606, 607, 608, 609, 610, 611, 612, 613, 614, 615, 616, 617, 618, 619, 620, 621, 622, 623, 624, 625, 626, 627, 628, 629, 630, 631, 632, 633, 634, 635, 636, 637, 638, 639, 640, 641, 642, 643, 644, 645, 646, 647, 648, 649, 650, 651, 652, 653, 654, 655, 656, 657, 658, 659, 660, 661, 662, 663, 664, 665, 666, 667, 668, 669, 670, 671, 672, 673, 674, 675, 676, 677, 678, 679, 680, 681, 682, 683, 684, 685, 686, 687, 688, 689, 690, 691, 692, 693, 694, 695, 696, 697, 698, 699, 700, 701, 702, 703, 704, 705, 706, 707, 708, 709, 710, 711, 712, 713, 714, 715, 716, 717, 718, 719, 720, 721, 722, 723, 724, 725, 726, 727, 728, 729, 730, 731, 732, 733, 734, 735, 736, 737, 738, 739, 740, 741, 742, 743, 744, 745, 746, 747, 748, 749, 750, 751, 752, 753, 754, 755, 756, 757, 758, 759, 760, 761, 762, 763, 764, 765, 766, 767, 768, 769, 770, 771, 772, 773, 774, 775, 776, 777, 778, 779, 780, 781, 782, 783, 784, 785, 786, 787, 788, 789, 790, 791, 792, 793, 794, 795, 796, 797, 798, 799, 800, 801, 802, 803, 804, 805, 806, 807, 808, 809, 810, 811, 812, 813, 814, 815, 816, 817, 818, 819, 820, 821, 822, 823, 824, 825, 826, 827, 828, 829, 830, 831, 832, 833, 834, 835, 836, 837, 838, 839, 840, 841, 842, 843, 844, 845, 846, 847, 848, 849, 850, 851, 852, 853, 854, 855, 856, 857, 858, 859, 860, 861, 862, 863, 864, 865, 866, 867, 868, 869, 870, 871, 872, 873, 874, 875, 876, 877, 878, 879, 880, 881, 882, 883, 884, 885, 886, 887, 888, 889, 890, 891, 892, 893, 894, 895, 896, 897, 898, 899, 900, 901, 902, 903, 904, 905, 906, 907, 908, 909, 910, 911, 912, 913, 914, 915, 916, 917, 918, 919, 920, 921, 922, 923, 924, 925, 926, 927, 928, 929, 930, 931, 932, 933, 934, 935, 936, 937, 938, 939, 940, 941, 942, 943, 944, 945, 946, 947, 948, 949, 950, 951, 952, 953, 954, 955, 956, 957, 958, 959, 960, 961, 962, 963, 964, 965, 966, 967, 968, 969, 970, 971, 972, 973, 974, 975, 976, 977, 978, 979, 980, 981, 982, 983, 984, 985, 986, 987, 988, 989, 990, 991, 992, 993, 994, 995, 996, 997, 998, 999, 1000, 1001, 1002, 1003, 1004, 1005, 1006, 1007, 1008, 1009, 1010, 1011, 1012, 1013, 1014, 1015, 1016, 1017, 1018, 1019, 1020, 1021, 1022, 1023, 1024, 1025, 1026, 1027, 1028, 1029, 1030, 1031, 1032, 1033, 1034, 1035, 1036, 1037, 1038, 1039, 1040, 1041, 1042, 1043, 1044, 1045, 1046, 1047, 1048, 1049, 1050, 1051, 1052, 1053, 1054, 1055, 1056, 1057, 1058, 1059, 1060, 1061, 1062, 1063, 1064, 1065, 1066, 1067, 1068, 1069, 1070, 1071, 1072, 1073, 1074, 1075, 1076, 1077, 1078, 1079, 1080, 1081, 1082, 1083, 1084, 1085, 1086, 1087, 1088, 1089, 1090, 1091, 1092, 1093, 1094, 1095, 1096, 1097, 1098, 1099, 1100, 1101, 1102, 1103, 1104, 1105, 1106, 1107, 1108, 1109, 1110, 1111, 1112, 1113, 1114, 1115, 1116, 1117, 1118, 1119, 1120, 1121, 1122, 1123, 1124, 1125, 1126, 1127, 1128, 1129, 1130, 1131, 1132, 1133, 1134, 1135, 1136, 1137, 1138, 1139, 1140, 1141, 1142, 1143, 1144, 1145, 1146, 1147, 1148, 1149, 1150, 1151, 1152, 1153, 1154, 1155, 1156, 1157, 1158, 1159, 1160, 1161, 1162, 1163, 1164, 1165, 1166, 1167, 1168, 1169, 1170, 1171, 1172, 1173, 1174, 1175, 1176, 1177, 1178, 1179, 1180, 1181, 1182, 1183, 1184, 1185, 1186, 1187, 1188, 1189, 1190, 1191, 1192, 1193, 1194, 1195, 1196, 1197, 1198, 1199, 1200, 1201, 1202, 1203, 1204, 1205, 1206, 1207, 1208, 1209, 1210, 1211, 1212, 1213, 1214, 1215, 1216, 1217, 1218, 1219, 1220, 1221, 1222, 1223, 1224, 1225, 1226, 1227, 1228, 1229, 1230, 1231, 1232, 1233, 1234, 1235, 1236, 1237, 1238, 1239, 1240, 1241, 1242, 1243, 1244, 1245, 1246, 1247, 1248, 1249, 1250, 1251, 1252, 1253, 1254, 1255, 1256, 1257, 1258, 1259, 1260, 1261, 1262, 1263, 1264, 1265, 1266, 1267, 1268, 1269, 1270, 1271, 1272, 1273, 1274, 1275, 1276, 1277, 1278, 1279, 1280, 1281, 1282, 1283, 1284, 1285, 1286, 1287, 1288, 1289, 1290, 1291, 1292, 1293, 1294, 1295, 1296, 1297, 1298, 1299, 1300, 1301, 1302, 1303, 1304, 1305, 1306, 1307, 1308, 1309, 1310, 1311, 1312, 1313, 1314, 1315, 1316, 1317, 1318, 1319, 1320, 1321, 1322, 1323, 1324, 1325, 1326, 1327, 1328, 1329, 1330, 1331, 1332, 1333, 1334, 1335, 1336, 1337, 1338, 1339, 1340, 1341, 1342, 1343, 1344, 1345, 1346, 1347, 1348, 1349, 1350, 1351, 1352, 1353, 1354, 1355, 1356, 1357, 1358, 1359, 1360, 1361, 1362, 1363, 1364, 1365, 1366, 1367, 1368, 1369],
      "AcquisitionTime": ["192958.197500", "193000.197500", "193002.197500", "193004.197500", "193006.197500", "193008.197500", "193010.197500", "193012.197500", "193014.197500", "193016.197500", "193018.197500", "193020.197500", "193022.197500", "193024.197500", "193026.197500", "193028.197500", "193030.197500", "193032.197500", "193034.197500", "193036.197500", "193038.197500", "193040.197500", "193042.197500", "193044.197500", "193046.197500", "193048.197500", "193050.197500", "193052.197500", "193054.197500", "193056.197500", "193058.197500", "193100.197500", "193102.197500", "193104.197500", "193106.197500", "193108.197500", "193110.197500", "193112.197500", "193114.197500", "193116.197500", "193118.197500", "193120.197500", "193122.197500", "193124.197500", "193126.197500", "193128.197500", "193130.197500", "193132.197500", "193134.197500", "193136.197500", "193138.197500", "193140.197500", "193142.197500", "193144.197500", "193146.197500", "193148.197500", "193150.197500", "193152.197500", "193154.197500", "193156.197500", "193158.197500", "193200.197500", "193202.197500", "193204.197500", "193206.197500", "193208.197500", "193210.197500", "193212.197500", "193214.197500", "193216.197500", "193218.197500", "193220.197500", "193222.197500", "193224.197500", "193226.197500", "193228.197500", "193230.197500", "193232.197500", "193234.197500", "193236.197500", "193238.197500", "193240.197500", "193242.197500", "193244.197500", "193246.197500", "193248.197500", "193250.197500", "193252.197500", "193254.197500", "193256.197500", "193258.197500", "193300.197500", "193302.197500", "193304.197500", "193306.197500", "193308.197500", "193310.197500", "193312.197500", "193314.197500", "193316.197500", "193318.197500", "193320.197500", "193322.197500", "193324.197500", "193326.197500", "193328.197500", "193330.197500", "193332.197500", "193334.197500", "193336.197500", "193338.197500", "193340.197500", "193342.197500", "193344.197500", "193346.197500", "193348.197500", "193350.197500", "193352.197500", "193354.197500", "193356.197500", "193358.197500", "193400.197500", "193402.197500", "193404.197500", "193406.197500", "193408.197500", "193410.197500", "193412.197500", "193414.197500", "193416.197500", "193418.197500", "193420.197500", "193422.197500", "193424.197500", "193426.197500", "193428.197500", "193430.197500", "193432.197500", "193434.197500", "193436.197500", "193438.197500", "193440.197500", "193442.197500", "193444.197500", "193446.197500", "193448.197500", "193450.197500", "193452.197500", "193454.197500", "193456.197500", "193458.197500", "193500.197500", "193502.197500", "193504.197500", "193506.197500", "193508.197500", "193510.197500", "193512.197500", "193514.197500", "193516.197500", "193518.197500", "193520.197500", "193522.197500", "193524.197500", "193526.197500", "193528.197500", "193530.197500", "193532.197500", "193534.197500", "193536.197500", "193538.197500", "193540.197500", "193542.197500", "193544.197500", "193546.197500", "193548.197500", "193550.197500", "193552.197500", "193554.197500", "193556.197500", "193558.197500", "193600.197500", "193602.197500", "193604.197500", "193606.197500", "193608.197500", "193610.197500", "193612.197500", "193614.197500", "193616.197500", "193618.197500", "193620.197500", "193622.197500", "193624.197500", "193626.197500", "193628.197500", "193630.197500", "193632.197500", "193634.197500", "193636.197500", "193638.197500", "193640.197500", "193642.197500", "193644.197500", "193646.197500", "193648.197500", "193650.197500", "193652.197500", "193654.197500", "193656.197500", "193658.197500", "193700.197500", "193702.197500", "193704.197500", "193706.197500", "193708.197500", "193710.197500", "193712.197500", "193714.197500", "193716.197500", "193718.197500", "193720.197500", "193722.197500", "193724.197500", "193726.197500", "193728.197500", "193730.197500", "193732.197500", "193734.197500", "193736.197500", "193738.197500", "193740.197500", "193742.197500", "193744.197500", "193746.197500", "193748.197500", "193750.197500", "193752.197500", "193754.197500", "193756.197500", "193758.197500", "193800.197500", "193802.197500", "193804.197500", "193806.197500", "193808.197500", "193810.197500", "193812.197500", "193814.197500", "193816.197500", "193818.197500", "193820.197500", "193822.197500", "193824.197500", "193826.197500", "193828.197500", "193830.197500", "193832.197500", "193834.197500", "193836.197500", "193838.197500", "193840.197500", "193842.197500", "193844.197500", "193846.197500", "193848.197500", "193850.197500", "193852.197500", "193854.197500", "193856.197500", "193858.197500", "193900.197500", "193902.197500", "193904.197500", "193906.197500", "193908.197500", "193910.197500", "193912.197500", "193914.197500", "193916.197500", "193918.197500", "193920.197500", "193922.197500", "193924.197500", "193926.197500", "193928.197500", "193930.197500", "193932.197500", "193934.197500", "193936.197500", "193938.197500", "193940.197500", "193942.197500", "193944.197500", "193946.197500", "193948.197500", "193950.197500", "193952.197500", "193954.197500", "193956.197500", "193958.197500", "194000.197500", "194002.197500", "194004.197500", "194006.197500", "194008.197500", "194010.197500", "194012.197500", "194014.197500", "194016.197500", "194018.197500", "194020.197500", "194022.197500", "194024.197500", "194026.197500", "194028.197500", "194030.197500", "194032.197500", "194034.197500", "194036.197500", "194038.197500", "194040.197500", "194042.197500", "194044.197500", "194046.197500", "194048.197500", "194050.197500", "194052.197500", "194054.197500", "194056.197500", "194058.197500", "194100.197500", "194102.197500", "194104.197500", "194106.197500", "194108.197500", "194110.197500", "194112.197500", "194114.197500", "194116.197500", "194118.197500", "194120.197500", "194122.197500", "194124.197500", "194126.197500", "194128.197500", "194130.197500", "194132.197500", "194134.197500", "194136.197500", "194138.197500", "194140.197500", "194142.197500", "194144.197500", "194146.197500", "194148.197500", "194150.197500", "194152.197500", "194154.197500", "194156.197500", "194158.197500", "194200.197500", "194202.197500", "194204.197500", "194206.197500", "194208.197500", "194210.197500", "194212.197500", "194214.197500", "194216.197500", "194218.197500", "194220.197500", "194222.197500", "194224.197500", "194226.197500", "194228.197500", "194230.197500", "194232.197500", "194234.197500", "194236.197500", "194238.197500", "194240.197500", "194242.197500", "194244.197500", "194246.197500", "194248.197500", "194250.197500", "194252.197500", "194254.197500", "194256.197500", "194258.197500", "194300.197500", "194302.197500", "194304.197500", "194306.197500", "194308.197500", "194310.197500", "194312.197500", "194314.197500", "194316.197500", "194318.197500", "194320.197500", "194322.197500", "194324.197500", "194326.197500", "194328.197500", "194330.197500", "194332.197500", "194334.197500", "194336.197500", "194338.197500", "194340.197500", "194342.197500", "194344.197500", "194346.197500", "194348.197500", "194350.197500", "194352.197500", "194354.197500", "194356.197500", "194358.197500", "194400.197500", "194402.197500", "194404.197500", "194406.197500", "194408.197500", "194410.197500", "194412.197500", "194414.197500", "194416.197500", "194418.197500", "194420.197500", "194422.197500", "194424.197500", "194426.197500", "194428.197500", "194430.197500", "194432.197500", "194434.197500", "194436.197500", "194438.197500", "194440.197500", "194442.197500", "194444.197500", "194446.197500", "194448.197500", "194450.197500", "194452.197500", "194454.197500", "194456.197500", "194458.197500", "194500.197500", "194502.197500", "194504.197500", "194506.197500", "194508.197500", "194510.197500", "194512.197500", "194514.197500", "194516.197500", "194518.197500", "194520.197500", "194522.197500", "194524.197500", "194526.197500", "194528.197500", "194530.197500", "194532.197500", "194534.197500", "194536.197500", "194538.197500", "194540.197500", "194542.197500", "194544.197500", "194546.197500", "194548.197500", "194550.197500", "194552.197500", "194554.197500", "194556.197500", "194558.197500", "194600.197500", "194602.197500", "194604.197500", "194606.197500", "194608.197500", "194610.197500", "194612.197500", "194614.197500", "194616.197500", "194618.197500", "194620.197500", "194622.197500", "194624.197500", "194626.197500", "194628.197500", "194630.197500", "194632.197500", "194634.197500", "194636.197500", "194638.197500", "194640.197500", "194642.197500", "194644.197500", "194646.197500", "194648.197500", "194650.197500", "194652.197500", "194654.197500", "194656.197500", "194658.197500", "194700.197500", "194702.197500", "194704.197500", "194706.197500", "194708.197500", "194710.197500", "194712.197500", "194714.197500", "194716.197500", "194718.197500", "194720.197500", "194722.197500", "194724.197500", "194726.197500", "194728.197500", "194730.197500", "194732.197500", "194734.197500", "194736.197500", "194738.197500", "194740.197500", "194742.197500", "194744.197500", "194746.197500", "194748.197500", "194750.197500", "194752.197500", "194754.197500", "194756.197500", "194758.197500", "194800.197500", "194802.197500", "194804.197500", "194806.197500", "194808.197500", "194810.197500", "194812.197500", "194814.197500", "194816.197500", "194818.197500", "194820.197500", "194822.197500", "194824.197500", "194826.197500", "194828.197500", "194830.197500", "194832.197500", "194834.197500", "194836.197500", "194838.197500", "194840.197500", "194842.197500", "194844.197500", "194846.197500", "194848.197500", "194850.197500", "194852.197500", "194854.197500", "194856.197500", "194858.197500", "194900.197500", "194902.197500", "194904.197500", "194906.197500", "194908.197500", "194910.197500", "194912.197500", "194914.197500", "194916.197500", "194918.197500", "194920.197500", "194922.197500", "194924.197500", "194926.197500", "194928.197500", "194930.197500", "194932.197500", "194934.197500", "194936.197500", "194938.197500", "194940.197500", "194942.197500", "194944.197500", "194946.197500", "194948.197500", "194950.197500", "194952.197500", "194954.197500", "194956.197500", "194958.197500", "195000.197500", "195002.197500", "195004.197500", "195006.197500", "195008.197500", "195010.197500", "195012.197500", "195014.197500", "195016.197500", "195018.197500", "195020.197500", "195022.197500", "195024.197500", "195026.197500", "195028.197500", "195030.197500", "195032.197500", "195034.197500", "195036.197500", "195038.197500", "195040.197500", "195042.197500", "195044.197500", "195046.197500", "195048.197500", "195050.197500", "195052.197500", "195054.197500", "195056.197500", "195058.197500", "195100.197500", "195102.197500", "195104.197500", "195106.197500", "195108.197500", "195110.197500", "195112.197500", "195114.197500", "195116.197500", "195118.197500", "195120.197500", "195122.197500", "195124.197500", "195126.197500", "195128.197500", "195130.197500", "195132.197500", "195134.197500", "195136.197500", "195138.197500", "195140.197500", "195142.197500", "195144.197500", "195146.197500", "195148.197500", "195150.197500", "195152.197500", "195154.197500", "195156.197500", "195158.197500", "195200.197500", "195202.197500", "195204.197500", "195206.197500", "195208.197500", "195210.197500", "195212.197500", "195214.197500", "195216.197500", "195218.197500", "195220.197500", "195222.197500", "195224.197500", "195226.197500", "195228.197500", "195230.197500", "195232.197500", "195234.197500", "195236.197500", "195238.197500", "195240.197500", "195242.197500", "195244.197500", "195246.197500", "195248.197500", "195250.197500", "195252.197500", "195254.197500", "195256.197500", "195258.197500", "195300.197500", "195302.197500", "195304.197500", "195306.197500", "195308.197500", "195310.197500", "195312.197500", "195314.197500", "195316.197500", "195318.197500", "195320.197500", "195322.197500", "195324.197500", "195326.197500", "195328.197500", "195330.197500", "195332.197500", "195334.197500", "195336.197500", "195338.197500", "195340.197500", "195342.197500", "195344.197500", "195346.197500", "195348.197500", "195350.197500", "195352.197500", "195354.197500", "195356.197500", "195358.197500", "195400.197500", "195402.197500", "195404.197500", "195406.197500", "195408.197500", "195410.197500", "195412.197500", "195414.197500", "195416.197500", "195418.197500", "195420.197500", "195422.197500", "195424.197500", "195426.197500", "195428.197500", "195430.197500", "195432.197500", "195434.197500", "195436.197500", "195438.197500", "195440.197500", "195442.197500", "195444.197500", "195446.197500", "195448.197500", "195450.197500", "195452.197500", "195454.197500", "195456.197500", "195458.197500", "195500.197500", "195502.197500", "195504.197500", "195506.197500", "195508.197500", "195510.197500", "195512.197500", "195514.197500", "195516.197500", "195518.197500", "195520.197500", "195522.197500", "195524.197500", "195526.197500", "195528.197500", "195530.197500", "195532.197500", "195534.197500", "195536.197500", "195538.197500", "195540.197500", "195542.197500", "195544.197500", "195546.197500", "195548.197500", "195550.197500", "195552.197500", "195554.197500", "195556.197500", "195558.197500", "195600.197500", "195602.197500", "195604.197500", "195606.197500", "195608.197500", "195610.197500", "195612.197500", "195614.197500", "195616.197500", "195618.197500", "195620.197500", "195622.197500", "195624.197500", "195626.197500", "195628.197500", "195630.197500", "195632.197500", "195634.197500", "195636.197500", "195638.197500", "195640.197500", "195642.197500", "195644.197500", "195646.197500", "195648.197500", "195650.197500", "195652.197500", "195654.197500", "195656.197500", "195658.197500", "195700.197500", "195702.197500", "195704.197500", "195706.197500", "195708.197500", "195710.197500", "195712.197500", "195714.197500", "195716.197500", "195718.197500", "195720.197500", "195722.197500", "195724.197500", "195726.197500", "195728.197500", "195730.197500", "195732.197500", "195734.197500", "195736.197500", "195738.197500", "195740.197500", "195742.197500", "195744.197500", "195746.197500", "195748.197500", "195750.197500", "195752.197500", "195754.197500", "195756.197500", "195758.197500", "195800.197500", "195802.197500", "195804.197500", "195806.197500", "195808.197500", "195810.197500", "195812.197500", "195814.197500", "195816.197500", "195818.197500", "195820.197500", "195822.197500", "195824.197500", "195826.197500", "195828.197500", "195830.197500", "195832.197500", "195834.197500", "195836.197500", "195838.197500", "195840.197500", "195842.197500", "195844.197500", "195846.197500", "195848.197500", "195850.197500", "195852.197500", "195854.197500", "195856.197500", "195858.197500", "195900.197500", "195902.197500", "195904.197500", "195906.197500", "195908.197500", "195910.197500", "195912.197500", "195914.197500", "195916.197500", "195918.197500", "195920.197500", "195922.197500", "195924.197500", "195926.197500", "195928.197500", "195930.197500", "195932.197500", "195934.197500", "195936.197500", "195938.197500", "195940.197500", "195942.197500", "195944.197500", "195946.197500", "195948.197500", "195950.197500", "195952.197500", "195954.197500", "195956.197500", "195958.197500", "200000.197500", "200002.197500", "200004.197500", "200006.197500", "200008.197500", "200010.197500", "200012.197500", "200014.197500", "200016.197500", "200018.197500", "200020.197500", "200022.197500", "200024.197500", "200026.197500", "200028.197500", "200030.197500", "200032.197500", "200034.197500", "200036.197500", "200038.197500", "200040.197500", "200042.197500", "200044.197500", "200046.197500", "200048.197500", "200050.197500", "200052.197500", "200054.197500", "200056.197500", "200058.197500", "200100.197500", "200102.197500", "200104.197500", "200106.197500", "200108.197500", "200110.197500", "200112.197500", "200114.197500", "200116.197500", "200118.197500", "200120.197500", "200122.197500", "200124.197500", "200126.197500", "200128.197500", "200130.197500", "200132.197500", "200134.197500", "200136.197500", "200138.197500", "200140.197500", "200142.197500", "200144.197500", "200146.197500", "200148.197500", "200150.197500", "200152.197500", "200154.197500", "200156.197500", "200158.197500", "200200.197500", "200202.197500", "200204.197500", "200206.197500", "200208.197500", "200210.197500", "200212.197500", "200214.197500", "200216.197500", "200218.197500", "200220.197500", "200222.197500", "200224.197500", "200226.197500", "200228.197500", "200230.197500", "200232.197500", "200234.197500", "200236.197500", "200238.197500", "200240.197500", "200242.197500", "200244.197500", "200246.197500", "200248.197500", "200250.197500", "200252.197500", "200254.197500", "200256.197500", "200258.197500", "200300.197500", "200302.197500", "200304.197500", "200306.197500", "200308.197500", "200310.197500", "200312.197500", "200314.197500", "200316.197500", "200318.197500", "200320.197500", "200322.197500", "200324.197500", "200326.197500", "200328.197500", "200330.197500", "200332.197500", "200334.197500", "200336.197500", "200338.197500", "200340.197500", "200342.197500", "200344.197500", "200346.197500", "200348.197500", "200350.197500", "200352.197500", "200354.197500", "200356.197500", "200358.197500", "200400.197500", "200402.197500", "200404.197500", "200406.197500", "200408.197500", "200410.197500", "200412.197500", "200414.197500", "200416.197500", "200418.197500", "200420.197500", "200422.197500", "200424.197500", "200426.197500", "200428.197500", "200430.197500", "200432.197500", "200434.197500", "200436.197500", "200438.197500", "200440.197500", "200442.197500", "200444.197500", "200446.197500", "200448.197500", "200450.197500", "200452.197500", "200454.197500", "200456.197500", "200458.197500", "200500.197500", "200502.197500", "200504.197500", "200506.197500", "200508.197500", "200510.197500", "200512.197500", "200514.197500", "200516.197500", "200518.197500", "200520.197500", "200522.197500", "2