{
  "AcquisitionMatrixPE": 80,
  "AcquisitionNumber": 1,
  "AcquisitionTime": "13:25:8.612500",
  "BandwidthPerPixelPhaseEncode": 51.02,
  "BaseResolution": 80,
  "BodyPartExamined": "BRAIN",
  "ConsistencyInfo": "N4_VE11C_LATEST_20160120",
  "ConversionSoftware": "dcm2niix",
  "ConversionSoftwareVersion": "v1.0.20170923 (OpenJPEG build) GCC6.3.0",
  "DerivedVendorReportedEchoSpacing": 0.000490004,
  "DeviceSerialNumber": "66112",
  "DwellTime": 2.2e-06,
  "EchoTime": 0.025,
  "EchoTrainLength": 39,
  "EffectiveEchoSpacing": 0.000245002,
  "FlipAngle": 75,
  "ImageType": [
    "ORIGINAL",
    "PRIMARY",
    "FMRI",
    "NONE",
    "ND",
    "NORM",
    "MOSAIC"
],
  "InstitutionAddress": "Maynard_3_Hanover_NH_US_03755",
  "InstitutionName": "Dartmouth_College_-_PBS",
  "MagneticFieldStrength": 3,
  "Manufacturer": "Siemens",
  "ManufacturersModelName": "Prisma",
  "Modality": "MR",
  "ParallelReductionFactorInPlane": 2,
  "PartialFourier": 1,
  "PercentPhaseFOV": 100,
  "PhaseEncodingDirection": "j-",
  "PhaseEncodingSteps": 79,
  "PhaseResolution": 1,
  "ProcedureStepDescription": "Chang_Chang_1039_fnlpilot",
  "ProtocolName": "func_run-01_task-movie",
  "PulseSequenceDetails": "%SiemensSeq%_ep2d_bold",
  "ReceiveCoilActiveElements": "HEA;HEP",
  "ReceiveCoilName": "Head_32",
  "ReconMatrixPE": 80,
  "RepetitionTime": 2,
  "ScanOptions": "FS",
  "ScanningSequence": "EP",
  "SequenceName": "_epfid2d1_80",
  "SequenceVariant": "SK",
  "SeriesDescription": "func_run-01_task-movie",
  "SliceTiming": [0.99, 0, 1.0375, 0.0475, 1.0875, 0.0975, 1.1375, 0.1475, 1.1875, 0.1975, 1.2375, 0.2475, 1.285, 0.295, 1.335, 0.345, 1.385, 0.395, 1.435, 0.445, 1.485, 0.495, 1.5325, 0.5425, 1.5825, 0.5925, 1.6325, 0.6425, 1.6825, 0.6925, 1.7325, 0.7425, 1.78, 0.79, 1.83, 0.84, 1.88, 0.89, 1.93, 0.94],
  "SoftwareVersions": "syngo_MR_E11",
  "StationName": "AWP66112",
  "TaskName": "movie",
  "TotalReadoutTime": 0.0193552,
  "dcmmeta_affine": [
    [-2.9954357147216797, -0.044441498816013336, -0.15934178233146667, 126.902099609375],
    [-0.05106401816010475, 2.9969987869262695, 0.12405958771705627, -114.53946685791016],
    [-0.15734457969665527, -0.1265830546617508, 2.9931955337524414, -45.05665588378906],
    [0.0, 0.0, 0.0, 1.0]
],
  "dcmmeta_reorient_transform": [
    [0.0, -1.0, 0.0, 79.0],
    [1.0, 0.0, 0.0, 0.0],
    [0.0, 0.0, 1.0, 0.0],
    [0.0, 0.0, 0.0, 1.0]
],
  "dcmmeta_shape": [80, 80, 40, 1369],
  "dcmmeta_slice_dim": 2,
  "dcmmeta_version": 0.6,
  "global": {
    "const": {
      "AccessionNumber": "A001073",
      "AcquisitionMatrix": [80, 0, 0, 80],
      "AngioFlag": "N",
      "BitsAllocated": 16,
      "BitsStored": 12,
      "BodyPartExamined": "BRAIN",
      "Columns": 560,
      "EchoNumbers": 1,
      "EchoTime": 25.0,
      "EchoTrainLength": 39,
      "FlipAngle": 75.0,
      "HighBit": 11,
      "ImageOrientationPatient": [0.99847857315113, 0.01702133991398, -0.052448192968, -0.014813832442, 0.99899959322387, 0.04219434922976],
      "ImagePositionPatient": [-831.62983740727, -853.75850691505, -47.673949299386],
      "ImageType": [
        "ORIGINAL",
        "PRIMARY",
        "FMRI",
        "NONE",
        "ND",
        "NORM",
        "MOSAIC"
],
      "ImagedNucleus": "1H",
      "ImagingFrequency": 123.252305,
      "InPlanePhaseEncodingDirection": "COL",
      "MRAcquisitionType": "2D",
      "MagneticFieldStrength": 3.0,
      "Manufacturer": "SIEMENS",
      "ManufacturerModelName": "Prisma",
      "Modality": "MR",
      "NumberOfAverages": 1.0,
      "NumberOfPhaseEncodingSteps": 79,
      "PercentPhaseFieldOfView": 100.0,
      "PercentSampling": 100.0,
      "PerformedProcedureStepStartTime": "130728.001000",
      "PhotometricInterpretation": "MONOCHROME2",
      "PixelBandwidth": 2840.0,
      "PixelRepresentation": 0,
      "PixelSpacing": [3.0, 3.0],
      "PositionReferenceIndicator": "",
      "ProtocolName": "func_run-01_task-movie",
      "RepetitionTime": 2000.0,
      "Rows": 560,
      "SAR": 0.09352368902539,
      "SamplesPerPixel": 1,
      "ScanOptions": "FS",
      "ScanningSequence": "EP",
      "SequenceName": "*epfid2d1_80",
      "SequenceVariant": "SK",
      "SeriesDescription": "func_run-01_task-movie",
      "SeriesNumber": 6,
      "SeriesTime": "132510.276000",
      "SliceLocation": -56.431302371823,
      "SliceThickness": 3.0,
      "SmallestImagePixelValue": 0,
      "SoftwareVersions": "syngo MR E11",
      "SpacingBetweenSlices": 3.00000003899,
      "SpecificCharacterSet": "ISO_IR 100",
      "StudyID": "1",
      "StudyTime": "130727.941000",
      "TransmitCoilName": "Body",
      "VariableFlipAngleFlag": "N",
      "WindowCenterWidthExplanation": "Algo1",
      "dBdt": 0.0},
    "slices": {}
  },
  "time": {
    "samples": {
      "AcquisitionNumber": [1, 2, 3, 4, 5, 6, 7, 8, 9, 10, 11, 12, 13, 14, 15, 16, 17, 18, 19, 20, 21, 22, 23, 24, 25, 26, 27, 28, 29, 30, 31, 32, 33, 34, 35, 36, 37, 38, 39, 40, 41, 42, 43, 44, 45, 46, 47, 48, 49, 50, 51, 52, 53, 54, 55, 56, 57, 58, 59, 60, 61, 62, 63, 64, 65, 66, 67, 68, 69, 70, 71, 72, 73, 74, 75, 76, 77, 78, 79, 80, 81, 82, 83, 84, 85, 86, 87, 88, 89, 90, 91, 92, 93, 94, 95, 96, 97, 98, 99, 100, 101, 102, 103, 104, 105, 106, 107, 108, 109, 110, 111, 112, 113, 114, 115, 116, 117, 118, 119, 120, 121, 122, 123, 124, 125, 126, 127, 128, 129, 130, 131, 132, 133, 134, 135, 136, 137, 138, 139, 140, 141, 142, 143, 144, 145, 146, 147, 148, 149, 150, 151, 152, 153, 154, 155, 156, 157, 158, 159, 160, 161, 162, 163, 164, 165, 166, 167, 168, 169, 170, 171, 172, 173, 174, 175, 176, 177, 178, 179, 180, 181, 182, 183, 184, 185, 186, 187, 188, 189, 190, 191, 192, 193, 194, 195, 196, 197, 198, 199, 200, 201, 202, 203, 204, 205, 206, 207, 208, 209, 210, 211, 212, 213, 214, 215, 216, 217, 218, 219, 220, 221, 222, 223, 224, 225, 226, 227, 228, 229, 230, 231, 232, 233, 234, 235, 236, 237, 238, 239, 240, 241, 242, 243, 244, 245, 246, 247, 248, 249, 250, 251, 252, 253, 254, 255, 256, 257, 258, 259, 260, 261, 262, 263, 264, 265, 266, 267, 268, 269, 270, 271, 272, 273, 274, 275, 276, 277, 278, 279, 280, 281, 282, 283, 284, 285, 286, 287, 288, 289, 290, 291, 292, 293, 294, 295, 296, 297, 298, 299, 300, 301, 302, 303, 304, 305, 306, 307, 308, 309, 310, 311, 312, 313, 314, 315, 316, 317, 318, 319, 320, 321, 322, 323, 324, 325, 326, 327, 328, 329, 330, 331, 332, 333, 334, 335, 336, 337, 338, 339, 340, 341, 342, 343, 344, 345, 346, 347, 348, 349, 350, 351, 352, 353, 354, 355, 356, 357, 358, 359, 360, 361, 362, 363, 364, 365, 366, 367, 368, 369, 370, 371, 372, 373, 374, 375, 376, 377, 378, 379, 380, 381, 382, 383, 384, 385, 386, 387, 388, 389, 390, 391, 392, 393, 394, 395, 396, 397, 398, 399, 400, 401, 402, 403, 404, 405, 406, 407, 408, 409, 410, 411, 412, 413, 414, 415, 416, 417, 418, 419, 420, 421, 422, 423, 424, 425, 426, 427, 428, 429, 430, 431, 432, 433, 434, 435, 436, 437, 438, 439, 440, 441, 442, 443, 444, 445, 446, 447, 448, 449, 450, 451, 452, 453, 454, 455, 456, 457, 458, 459, 460, 461, 462, 463, 464, 465, 466, 467, 468, 469, 470, 471, 472, 473, 474, 475, 476, 477, 478, 479, 480, 481, 482, 483, 484, 485, 486, 487, 488, 489, 490, 491, 492, 493, 494, 495, 496, 497, 498, 499, 500, 501, 502, 503, 504, 505, 506, 507, 508, 509, 510, 511, 512, 513, 514, 515, 516, 517, 518, 519, 520, 521, 522, 523, 524, 525, 526, 527, 528, 529, 530, 531, 532, 533, 534, 535, 536, 537, 538, 539, 540, 541, 542, 543, 544, 545, 546, 547, 548, 549, 550, 551, 552, 553, 554, 555, 556, 557, 558, 559, 560, 561, 562, 563, 564, 565, 566, 567, 568, 569, 570, 571, 572, 573, 574, 575, 576, 577, 578, 579, 580, 581, 582, 583, 584, 585, 586, 587, 588, 589, 590, 591, 592, 593, 594, 595, 596, 597, 598, 599, 600, 601, 602, 603, 604, 605, 606, 607, 608, 609, 610, 611, 612, 613, 614, 615, 616, 617, 618, 619, 620, 621, 622, 623, 624, 625, 626, 627, 628, 629, 630, 631, 632, 633, 634, 635, 636, 637, 638, 639, 640, 641, 642, 643, 644, 645, 646, 647, 648, 649, 650, 651, 652, 653, 654, 655, 656, 657, 658, 659, 660, 661, 662, 663, 664, 665, 666, 667, 668, 669, 670, 671, 672, 673, 674, 675, 676, 677, 678, 679, 680, 681, 682, 683, 684, 685, 686, 687, 688, 689, 690, 691, 692, 693, 694, 695, 696, 697, 698, 699, 700, 701, 702, 703, 704, 705, 706, 707, 708, 709, 710, 711, 712, 713, 714, 715, 716, 717, 718, 719, 720, 721, 722, 723, 724, 725, 726, 727, 728, 729, 730, 731, 732, 733, 734, 735, 736, 737, 738, 739, 740, 741, 742, 743, 744, 745, 746, 747, 748, 749, 750, 751, 752, 753, 754, 755, 756, 757, 758, 759, 760, 761, 762, 763, 764, 765, 766, 767, 768, 769, 770, 771, 772, 773, 774, 775, 776, 777, 778, 779, 780, 781, 782, 783, 784, 785, 786, 787, 788, 789, 790, 791, 792, 793, 794, 795, 796, 797, 798, 799, 800, 801, 802, 803, 804, 805, 806, 807, 808, 809, 810, 811, 812, 813, 814, 815, 816, 817, 818, 819, 820, 821, 822, 823, 824, 825, 826, 827, 828, 829, 830, 831, 832, 833, 834, 835, 836, 837, 838, 839, 840, 841, 842, 843, 844, 845, 846, 847, 848, 849, 850, 851, 852, 853, 854, 855, 856, 857, 858, 859, 860, 861, 862, 863, 864, 865, 866, 867, 868, 869, 870, 871, 872, 873, 874, 875, 876, 877, 878, 879, 880, 881, 882, 883, 884, 885, 886, 887, 888, 889, 890, 891, 892, 893, 894, 895, 896, 897, 898, 899, 900, 901, 902, 903, 904, 905, 906, 907, 908, 909, 910, 911, 912, 913, 914, 915, 916, 917, 918, 919, 920, 921, 922, 923, 924, 925, 926, 927, 928, 929, 930, 931, 932, 933, 934, 935, 936, 937, 938, 939, 940, 941, 942, 943, 944, 945, 946, 947, 948, 949, 950, 951, 952, 953, 954, 955, 956, 957, 958, 959, 960, 961, 962, 963, 964, 965, 966, 967, 968, 969, 970, 971, 972, 973, 974, 975, 976, 977, 978, 979, 980, 981, 982, 983, 984, 985, 986, 987, 988, 989, 990, 991, 992, 993, 994, 995, 996, 997, 998, 999, 1000, 1001, 1002, 1003, 1004, 1005, 1006, 1007, 1008, 1009, 1010, 1011, 1012, 1013, 1014, 1015, 1016, 1017, 1018, 1019, 1020, 1021, 1022, 1023, 1024, 1025, 1026, 1027, 1028, 1029, 1030, 1031, 1032, 1033, 1034, 1035, 1036, 1037, 1038, 1039, 1040, 1041, 1042, 1043, 1044, 1045, 1046, 1047, 1048, 1049, 1050, 1051, 1052, 1053, 1054, 1055, 1056, 1057, 1058, 1059, 1060, 1061, 1062, 1063, 1064, 1065, 1066, 1067, 1068, 1069, 1070, 1071, 1072, 1073, 1074, 1075, 1076, 1077, 1078, 1079, 1080, 1081, 1082, 1083, 1084, 1085, 1086, 1087, 1088, 1089, 1090, 1091, 1092, 1093, 1094, 1095, 1096, 1097, 1098, 1099, 1100, 1101, 1102, 1103, 1104, 1105, 1106, 1107, 1108, 1109, 1110, 1111, 1112, 1113, 1114, 1115, 1116, 1117, 1118, 1119, 1120, 1121, 1122, 1123, 1124, 1125, 1126, 1127, 1128, 1129, 1130, 1131, 1132, 1133, 1134, 1135, 1136, 1137, 1138, 1139, 1140, 1141, 1142, 1143, 1144, 1145, 1146, 1147, 1148, 1149, 1150, 1151, 1152, 1153, 1154, 1155, 1156, 1157, 1158, 1159, 1160, 1161, 1162, 1163, 1164, 1165, 1166, 1167, 1168, 1169, 1170, 1171, 1172, 1173, 1174, 1175, 1176, 1177, 1178, 1179, 1180, 1181, 1182, 1183, 1184, 1185, 1186, 1187, 1188, 1189, 1190, 1191, 1192, 1193, 1194, 1195, 1196, 1197, 1198, 1199, 1200, 1201, 1202, 1203, 1204, 1205, 1206, 1207, 1208, 1209, 1210, 1211, 1212, 1213, 1214, 1215, 1216, 1217, 1218, 1219, 1220, 1221, 1222, 1223, 1224, 1225, 1226, 1227, 1228, 1229, 1230, 1231, 1232, 1233, 1234, 1235, 1236, 1237, 1238, 1239, 1240, 1241, 1242, 1243, 1244, 1245, 1246, 1247, 1248, 1249, 1250, 1251, 1252, 1253, 1254, 1255, 1256, 1257, 1258, 1259, 1260, 1261, 1262, 1263, 1264, 1265, 1266, 1267, 1268, 1269, 1270, 1271, 1272, 1273, 1274, 1275, 1276, 1277, 1278, 1279, 1280, 1281, 1282, 1283, 1284, 1285, 1286, 1287, 1288, 1289, 1290, 1291, 1292, 1293, 1294, 1295, 1296, 1297, 1298, 1299, 1300, 1301, 1302, 1303, 1304, 1305, 1306, 1307, 1308, 1309, 1310, 1311, 1312, 1313, 1314, 1315, 1316, 1317, 1318, 1319, 1320, 1321, 1322, 1323, 1324, 1325, 1326, 1327, 1328, 1329, 1330, 1331, 1332, 1333, 1334, 1335, 1336, 1337, 1338, 1339, 1340, 1341, 1342, 1343, 1344, 1345, 1346, 1347, 1348, 1349, 1350, 1351, 1352, 1353, 1354, 1355, 1356, 1357, 1358, 1359, 1360, 1361, 1362, 1363, 1364, 1365, 1366, 1367, 1368, 1369],
      "AcquisitionTime": ["132508.612500", "132510.612500", "132512.612500", "132514.612500", "132516.612500", "132518.612500", "132520.612500", "132522.612500", "132524.612500", "132526.612500", "132528.612500", "132530.612500", "132532.612500", "132534.612500", "132536.612500", "132538.612500", "132540.612500", "132542.612500", "132544.612500", "132546.612500", "132548.612500", "132550.612500", "132552.612500", "132554.612500", "132556.612500", "132558.612500", "132600.612500", "132602.612500", "132604.612500", "132606.612500", "132608.612500", "132610.612500", "132612.612500", "132614.612500", "132616.612500", "132618.612500", "132620.612500", "132622.612500", "132624.612500", "132626.612500", "132628.612500", "132630.612500", "132632.612500", "132634.612500", "132636.612500", "132638.612500", "132640.612500", "132642.612500", "132644.612500", "132646.612500", "132648.612500", "132650.612500", "132652.612500", "132654.612500", "132656.612500", "132658.612500", "132700.612500", "132702.612500", "132704.612500", "132706.612500", "132708.612500", "132710.612500", "132712.612500", "132714.612500", "132716.612500", "132718.612500", "132720.612500", "132722.612500", "132724.612500", "132726.612500", "132728.612500", "132730.612500", "132732.612500", "132734.612500", "132736.612500", "132738.612500", "132740.612500", "132742.612500", "132744.612500", "132746.612500", "132748.612500", "132750.612500", "132752.612500", "132754.612500", "132756.612500", "132758.612500", "132800.612500", "132802.612500", "132804.612500", "132806.612500", "132808.612500", "132810.612500", "132812.612500", "132814.612500", "132816.612500", "132818.612500", "132820.612500", "132822.612500", "132824.612500", "132826.612500", "132828.612500", "132830.612500", "132832.612500", "132834.612500", "132836.612500", "132838.612500", "132840.612500", "132842.612500", "132844.612500", "132846.612500", "132848.612500", "132850.612500", "132852.612500", "132854.612500", "132856.612500", "132858.612500", "132900.612500", "132902.612500", "132904.612500", "132906.612500", "132908.612500", "132910.612500", "132912.612500", "132914.612500", "132916.612500", "132918.612500", "132920.612500", "132922.612500", "132924.612500", "132926.612500", "132928.612500", "132930.612500", "132932.612500", "132934.612500", "132936.612500", "132938.612500", "132940.612500", "132942.612500", "132944.612500", "132946.612500", "132948.612500", "132950.612500", "132952.612500", "132954.612500", "132956.612500", "132958.612500", "133000.612500", "133002.612500", "133004.612500", "133006.612500", "133008.612500", "133010.612500", "133012.612500", "133014.612500", "133016.612500", "133018.612500", "133020.612500", "133022.612500", "133024.612500", "133026.612500", "133028.612500", "133030.612500", "133032.612500", "133034.612500", "133036.612500", "133038.612500", "133040.612500", "133042.612500", "133044.612500", "133046.612500", "133048.612500", "133050.612500", "133052.612500", "133054.612500", "133056.612500", "133058.612500", "133100.612500", "133102.612500", "133104.612500", "133106.612500", "133108.612500", "133110.612500", "133112.612500", "133114.612500", "133116.612500", "133118.612500", "133120.612500", "133122.612500", "133124.612500", "133126.612500", "133128.612500", "133130.612500", "133132.612500", "133134.612500", "133136.612500", "133138.612500", "133140.612500", "133142.612500", "133144.612500", "133146.612500", "133148.612500", "133150.612500", "133152.612500", "133154.612500", "133156.612500", "133158.612500", "133200.612500", "133202.612500", "133204.612500", "133206.612500", "133208.612500", "133210.612500", "133212.612500", "133214.612500", "133216.612500", "133218.612500", "133220.612500", "133222.612500", "133224.612500", "133226.612500", "133228.612500", "133230.612500", "133232.612500", "133234.612500", "133236.612500", "133238.612500", "133240.612500", "133242.612500", "133244.612500", "133246.612500", "133248.612500", "133250.612500", "133252.612500", "133254.612500", "133256.612500", "133258.612500", "133300.612500", "133302.612500", "133304.612500", "133306.612500", "133308.612500", "133310.612500", "133312.612500", "133314.612500", "133316.612500", "133318.612500", "133320.612500", "133322.612500", "133324.612500", "133326.612500", "133328.612500", "133330.612500", "133332.612500", "133334.612500", "133336.612500", "133338.612500", "133340.612500", "133342.612500", "133344.612500", "133346.612500", "133348.612500", "133350.612500", "133352.612500", "133354.612500", "133356.612500", "133358.612500", "133400.612500", "133402.612500", "133404.612500", "133406.612500", "133408.612500", "133410.612500", "133412.612500", "133414.612500", "133416.612500", "133418.612500", "133420.612500", "133422.612500", "133424.612500", "133426.612500", "133428.612500", "133430.612500", "133432.612500", "133434.612500", "133436.612500", "133438.612500", "133440.612500", "133442.612500", "133444.612500", "133446.612500", "133448.612500", "133450.612500", "133452.612500", "133454.612500", "133456.612500", "133458.612500", "133500.612500", "133502.612500", "133504.612500", "133506.612500", "133508.612500", "133510.612500", "133512.612500", "133514.612500", "133516.612500", "133518.612500", "133520.612500", "133522.612500", "133524.612500", "133526.612500", "133528.612500", "133530.612500", "133532.612500", "133534.612500", "133536.612500", "133538.612500", "133540.612500", "133542.612500", "133544.612500", "133546.612500", "133548.612500", "133550.612500", "133552.612500", "133554.612500", "133556.612500", "133558.612500", "133600.612500", "133602.612500", "133604.612500", "133606.612500", "133608.612500", "133610.612500", "133612.612500", "133614.612500", "133616.612500", "133618.612500", "133620.612500", "133622.612500", "133624.612500", "133626.612500", "133628.612500", "133630.612500", "133632.612500", "133634.612500", "133636.612500", "133638.612500", "133640.612500", "133642.612500", "133644.612500", "133646.612500", "133648.612500", "133650.612500", "133652.612500", "133654.612500", "133656.612500", "133658.612500", "133700.612500", "133702.612500", "133704.612500", "133706.612500", "133708.612500", "133710.612500", "133712.612500", "133714.612500", "133716.612500", "133718.612500", "133720.612500", "133722.612500", "133724.612500", "133726.612500", "133728.612500", "133730.612500", "133732.612500", "133734.612500", "133736.612500", "133738.612500", "133740.612500", "133742.612500", "133744.612500", "133746.612500", "133748.612500", "133750.612500", "133752.612500", "133754.612500", "133756.612500", "133758.612500", "133800.612500", "133802.612500", "133804.612500", "133806.612500", "133808.612500", "133810.612500", "133812.612500", "133814.612500", "133816.612500", "133818.612500", "133820.612500", "133822.612500", "133824.612500", "133826.612500", "133828.612500", "133830.612500", "133832.612500", "133834.612500", "133836.612500", "133838.612500", "133840.612500", "133842.612500", "133844.612500", "133846.612500", "133848.612500", "133850.612500", "133852.612500", "133854.612500", "133856.612500", "133858.612500", "133900.612500", "133902.612500", "133904.612500", "133906.612500", "133908.612500", "133910.612500", "133912.612500", "133914.612500", "133916.612500", "133918.612500", "133920.612500", "133922.612500", "133924.612500", "133926.612500", "133928.612500", "133930.612500", "133932.612500", "133934.612500", "133936.612500", "133938.612500", "133940.612500", "133942.612500", "133944.612500", "133946.612500", "133948.612500", "133950.612500", "133952.612500", "133954.612500", "133956.612500", "133958.612500", "134000.612500", "134002.612500", "134004.612500", "134006.612500", "134008.612500", "134010.612500", "134012.612500", "134014.612500", "134016.612500", "134018.612500", "134020.612500", "134022.612500", "134024.612500", "134026.612500", "134028.612500", "134030.612500", "134032.612500", "134034.612500", "134036.612500", "134038.612500", "134040.612500", "134042.612500", "134044.612500", "134046.612500", "134048.612500", "134050.612500", "134052.612500", "134054.612500", "134056.612500", "134058.612500", "134100.612500", "134102.612500", "134104.612500", "134106.612500", "134108.612500", "134110.612500", "134112.612500", "134114.612500", "134116.612500", "134118.612500", "134120.612500", "134122.612500", "134124.612500", "134126.612500", "134128.612500", "134130.612500", "134132.612500", "134134.612500", "134136.612500", "134138.612500", "134140.612500", "134142.612500", "134144.612500", "134146.612500", "134148.612500", "134150.612500", "134152.612500", "134154.612500", "134156.612500", "134158.612500", "134200.612500", "134202.612500", "134204.612500", "134206.612500", "134208.612500", "134210.612500", "134212.612500", "134214.612500", "134216.612500", "134218.612500", "134220.612500", "134222.612500", "134224.612500", "134226.612500", "134228.612500", "134230.612500", "134232.612500", "134234.612500", "134236.612500", "134238.612500", "134240.612500", "134242.612500", "134244.612500", "134246.612500", "134248.612500", "134250.612500", "134252.612500", "134254.612500", "134256.612500", "134258.612500", "134300.612500", "134302.612500", "134304.612500", "134306.612500", "134308.612500", "134310.612500", "134312.612500", "134314.612500", "134316.612500", "134318.612500", "134320.612500", "134322.612500", "134324.612500", "134326.612500", "134328.612500", "134330.612500", "134332.612500", "134334.612500", "134336.612500", "134338.612500", "134340.612500", "134342.612500", "134344.612500", "134346.612500", "134348.612500", "134350.612500", "134352.612500", "134354.612500", "134356.612500", "134358.612500", "134400.612500", "134402.612500", "134404.612500", "134406.612500", "134408.612500", "134410.612500", "134412.612500", "134414.612500", "134416.612500", "134418.612500", "134420.612500", "134422.612500", "134424.612500", "134426.612500", "134428.612500", "134430.612500", "134432.612500", "134434.612500", "134436.612500", "134438.612500", "134440.612500", "134442.612500", "134444.612500", "134446.612500", "134448.612500", "134450.612500", "134452.612500", "134454.612500", "134456.612500", "134458.612500", "134500.612500", "134502.612500", "134504.612500", "134506.612500", "134508.612500", "134510.612500", "134512.612500", "134514.612500", "134516.612500", "134518.612500", "134520.612500", "134522.612500", "134524.612500", "134526.612500", "134528.612500", "134530.612500", "134532.612500", "134534.612500", "134536.612500", "134538.612500", "134540.612500", "134542.612500", "134544.612500", "134546.612500", "134548.612500", "134550.612500", "134552.612500", "134554.612500", "134556.612500", "134558.612500", "134600.612500", "134602.612500", "134604.612500", "134606.612500", "134608.612500", "134610.612500", "134612.612500", "134614.612500", "134616.612500", "134618.612500", "134620.612500", "134622.612500", "134624.612500", "134626.612500", "134628.612500", "134630.612500", "134632.612500", "134634.612500", "134636.612500", "134638.612500", "134640.612500", "134642.612500", "134644.612500", "134646.612500", "134648.612500", "134650.612500", "134652.612500", "134654.612500", "134656.612500", "134658.612500", "134700.612500", "134702.612500", "134704.612500", "134706.612500", "134708.612500", "134710.612500", "134712.612500", "134714.612500", "134716.612500", "134718.612500", "134720.612500", "134722.612500", "134724.612500", "134726.612500", "134728.612500", "134730.612500", "134732.612500", "134734.612500", "134736.612500", "134738.612500", "134740.612500", "134742.612500", "134744.612500", "134746.612500", "134748.612500", "134750.612500", "134752.612500", "134754.612500", "134756.612500", "134758.612500", "134800.612500", "134802.612500", "134804.612500", "134806.612500", "134808.612500", "134810.612500", "134812.612500", "134814.612500", "134816.612500", "134818.612500", "134820.612500", "134822.612500", "134824.612500", "134826.612500", "134828.612500", "134830.612500", "134832.612500", "134834.612500", "134836.612500", "134838.612500", "134840.612500", "134842.612500", "134844.612500", "134846.612500", "134848.612500", "134850.612500", "134852.612500", "134854.612500", "134856.612500", "134858.612500", "134900.612500", "134902.612500", "134904.612500", "134906.612500", "134908.612500", "134910.612500", "134912.612500", "134914.612500", "134916.612500", "134918.612500", "134920.612500", "134922.612500", "134924.612500", "134926.612500", "134928.612500", "134930.612500", "134932.612500", "134934.612500", "134936.612500", "134938.612500", "134940.612500", "134942.612500", "134944.612500", "134946.612500", "134948.612500", "134950.612500", "134952.612500", "134954.612500", "134956.612500", "134958.612500", "135000.612500", "135002.612500", "135004.612500", "135006.612500", "135008.612500", "135010.612500", "135012.612500", "135014.612500", "135016.612500", "135018.612500", "135020.612500", "135022.612500", "135024.612500", "135026.612500", "135028.612500", "135030.612500", "135032.612500", "135034.612500", "135036.612500", "135038.612500", "135040.612500", "135042.612500", "135044.612500", "135046.612500", "135048.612500", "135050.612500", "135052.612500", "135054.612500", "135056.612500", "135058.612500", "135100.612500", "135102.612500", "135104.612500", "135106.612500", "135108.612500", "135110.612500", "135112.612500", "135114.612500", "135116.612500", "135118.612500", "135120.612500", "135122.612500", "135124.612500", "135126.612500", "135128.612500", "135130.612500", "135132.612500", "135134.612500", "135136.612500", "135138.612500", "135140.612500", "135142.612500", "135144.612500", "135146.612500", "135148.612500", "135150.612500", "135152.612500", "135154.612500", "135156.612500", "135158.612500", "135200.612500", "135202.612500", "135204.612500", "135206.612500", "135208.612500", "135210.612500", "135212.612500", "135214.612500", "135216.612500", "135218.612500", "135220.612500", "135222.612500", "135224.612500", "135226.612500", "135228.612500", "135230.612500", "135232.612500", "135234.612500", "135236.612500", "135238.612500", "135240.612500", "135242.612500", "135244.612500", "135246.612500", "135248.612500", "135250.612500", "135252.612500", "135254.612500", "135256.612500", "135258.612500", "135300.612500", "135302.612500", "135304.612500", "135306.612500", "135308.612500", "135310.612500", "135312.612500", "135314.612500", "135316.612500", "135318.612500", "135320.612500", "135322.612500", "135324.612500", "135326.612500", "135328.612500", "135330.612500", "135332.612500", "135334.612500", "135336.612500", "135338.612500", "135340.612500", "135342.612500", "135344.612500", "135346.612500", "135348.612500", "135350.612500", "135352.612500", "135354.612500", "135356.612500", "135358.612500", "135400.612500", "135402.612500", "135404.612500", "135406.612500", "135408.612500", "135410.612500", "135412.612500", "135414.612500", "135416.612500", "135418.612500", "135420.612500", "135422.612500", "135424.612500", "135426.612500", "135428.612500", "135430.612500", "135432.612500", "135434.612500", "135436.612500", "135438.612500", "135440.612500", "135442.612500", "135444.612500", "135446.612500", "135448.612500", "135450.612500", "135452.612500", "135454.612500", "135456.612500", "135458.612500", "135500.612500", "135502.612500", "135504.612500", "135506.612500", "135508.612500", "135510.612500", "135512.612500", "135514.612500", "135516.612500", "135518.612500", "135520.612500", "135522.612500", "135524.612500", "135526.612500", "135528.612500", "135530.612500", "135532.612500", "135534.612500", "135536.612500", "135538.612500", "135540.612500", "135542.612500", "135544.612500", "135546.612500", "135548.612500", "135550.612500", "135552.612500", "135554.612500", "135556.612500", "135558.612500", "135600.612500", "135602.612500", "135604.612500", "135606.612500", "135608.612500", "135610.612500", "135612.612500", "135614.612500", "135616.612500", "135618.612500", "135620.612500", "135622.612500", "135624.612500", "135626.612500", "135628.612500", "135630.612500", "135632.612500", "135634.612500", "135636.612500", "135638.612500", "135640.612500", "135642.612500", "135644.612500", "135646.612500", "135648.612500", "135650.612500", "135652.612500", "135654.612500", "135656.612500", "135658.612500", "135700.612500", "135702.612500", "135704.612500", "135706.612500", "135708.612500", "135710.612500", "135712.612500", "135714.612500", "135716.612500", "135718.612500", "135720.612500", "135722.612500", "135724.612500", "135726.612500", "135728.612500", "135730.612500", "135732.612500", "135734.612500", "135736.612500", "135738.612500", "135740.612500", "135742.612500", "135744.612500", "135746.612500", "135748.612500", "135750.612500", "135752.612500", "135754.612500", "135756.612500", "135758.612500", "135800.612500", "135802.612500", "135804.612500", "135806.612500", "135808.612500", "135810.612500", "135812.612500", "135814.612500", "135816.612500", "135818.612500", "135820.612500", "135822.612500", "135824.612500", "135826.612500", "135828.612500", "135830.612500", "135832.612500", "135834.612500", "135836.612500", "135838.612500", "135840.612500", "135842.612500", "135844.612500", "135846.612500", "135848.612500", "135850.612500", "135852.612500", "135854.612500", "135856.612500", "135858.612500", "135900.612500", "135902.612500", "135904.612500", "135906.612500", "135908.612500", "135910.612500", "135912.612500", "135914.612500", "135916.612500", "135918.612500", "135920.612500", "135922.612500", "135924.612500", "135926.612500", "135928.612500", "135930.612500", "135932.612500", "135934.612500", "135936.612500", "135938.612500", "135940.612500", "135942.612500", "135944.612500", "135946.612500", "135948.612500", "135950.612500", "135952.612500", "135954.612500", "135956.612500", "135958.612500", "140000.612500", "140002.612500", "140004.612500", "140006.612500", "140008.612500", "140010.612500", "140012.612500", "140014.612500", "140016.612500", "140018.612500", "140020.612500", "140022.612500", "140024.612500", "140026.612500", "140028.612500", "140030.612500", "140032.61250