{
  "AcquisitionMatrixPE": 80,
  "AcquisitionNumber": 1,
  "AcquisitionTime": "19:01:58.480000",
  "BandwidthPerPixelPhaseEncode": 51.02,
  "BaseResolution": 80,
  "BodyPartExamined": "BRAIN",
  "ConsistencyInfo": "N4_VE11C_LATEST_20160120",
  "ConversionSoftware": "dcm2niix",
  "ConversionSoftwareVersion": "v1.0.20170923 (OpenJPEG build) GCC6.3.0",
  "DerivedVendorReportedEchoSpacing": 0.000490004,
  "DeviceSerialNumber": "66112",
  "DwellTime": 2.2e-06,
  "EchoTime": 0.025,
  "EchoTrainLength": 39,
  "EffectiveEchoSpacing": 0.000245002,
  "FlipAngle": 75,
  "ImageType": [
    "ORIGINAL",
    "PRIMARY",
    "FMRI",
    "NONE",
    "ND",
    "NORM",
    "MOSAIC"
],
  "InstitutionAddress": "Maynard_3_Hanover_NH_US_03755",
  "InstitutionName": "Dartmouth_College_-_PBS",
  "MagneticFieldStrength": 3,
  "Manufacturer": "Siemens",
  "ManufacturersModelName": "Prisma",
  "Modality": "MR",
  "ParallelReductionFactorInPlane": 2,
  "PartialFourier": 1,
  "PercentPhaseFOV": 100,
  "PhaseEncodingDirection": "j-",
  "PhaseEncodingSteps": 79,
  "PhaseResolution": 1,
  "ProcedureStepDescription": "Chang_Chang_1039_fnlpilot",
  "ProtocolName": "func_run-01_task-movie",
  "PulseSequenceDetails": "%SiemensSeq%_ep2d_bold",
  "ReceiveCoilActiveElements": "HEA;HEP",
  "ReceiveCoilName": "Head_32",
  "ReconMatrixPE": 80,
  "RepetitionTime": 2,
  "ScanOptions": "FS",
  "ScanningSequence": "EP",
  "SequenceName": "_epfid2d1_80",
  "SequenceVariant": "SK",
  "SeriesDescription": "func_run-01_task-movie",
  "SliceTiming": [0.99, 0, 1.0375, 0.05, 1.0875, 0.0975, 1.1375, 0.1475, 1.1875, 0.1975, 1.2375, 0.2475, 1.285, 0.2975, 1.335, 0.345, 1.385, 0.395, 1.435, 0.445, 1.485, 0.495, 1.5325, 0.545, 1.5825, 0.5925, 1.6325, 0.6425, 1.6825, 0.6925, 1.7325, 0.7425, 1.78, 0.79, 1.83, 0.84, 1.88, 0.89, 1.93, 0.94],
  "SoftwareVersions": "syngo_MR_E11",
  "StationName": "AWP66112",
  "TaskName": "movie",
  "TotalReadoutTime": 0.0193552,
  "dcmmeta_affine": [
    [-2.9996256828308105, -0.03193673864006996, 0.035015661269426346, 120.6946029663086],
    [-0.028128325939178467, 2.9836344718933105, 0.3116636276245117, -109.59599304199219],
    [0.03814248368144035, -0.31129640340805054, 2.9835615158081055, -38.02753448486328],
    [0.0, 0.0, 0.0, 1.0]
],
  "dcmmeta_reorient_transform": [
    [0.0, -1.0, 0.0, 79.0],
    [1.0, 0.0, 0.0, 0.0],
    [0.0, 0.0, 1.0, 0.0],
    [0.0, 0.0, 0.0, 1.0]
],
  "dcmmeta_shape": [80, 80, 40, 1369],
  "dcmmeta_slice_dim": 2,
  "dcmmeta_version": 0.6,
  "global": {
    "const": {
      "AccessionNumber": "A001246",
      "AcquisitionMatrix": [80, 0, 0, 80],
      "AngioFlag": "N",
      "BitsAllocated": 16,
      "BitsStored": 12,
      "BodyPartExamined": "BRAIN",
      "Columns": 560,
      "EchoNumbers": 1,
      "EchoTime": 25.0,
      "EchoTrainLength": 39,
      "FlipAngle": 75.0,
      "HighBit": 11,
      "ImageOrientationPatient": [0.99987521155873, 0.00937610836608, 0.01271416148606, -0.0106455794152, 0.9945448197557, 0.10376547179104],
      "ImagePositionPatient": [-830.41693640592, -848.93419651607, -146.4852869723],
      "ImageType": [
        "ORIGINAL",
        "PRIMARY",
        "FMRI",
        "NONE",
        "ND",
        "NORM",
        "MOSAIC"
],
      "ImagedNucleus": "1H",
      "ImagingFrequency": 123.252267,
      "InPlanePhaseEncodingDirection": "COL",
      "MRAcquisitionType": "2D",
      "MagneticFieldStrength": 3.0,
      "Manufacturer": "SIEMENS",
      "ManufacturerModelName": "Prisma",
      "Modality": "MR",
      "NumberOfAverages": 1.0,
      "NumberOfPhaseEncodingSteps": 79,
      "PercentPhaseFieldOfView": 100.0,
      "PercentSampling": 100.0,
      "PerformedProcedureStepStartTime": "184033.580000",
      "PhotometricInterpretation": "MONOCHROME2",
      "PixelBandwidth": 2840.0,
      "PixelRepresentation": 0,
      "PixelSpacing": [3.0, 3.0],
      "PositionReferenceIndicator": "",
      "ProtocolName": "func_run-01_task-movie",
      "RepetitionTime": 2000.0,
      "Rows": 560,
      "SAR": 0.09507642414505,
      "SamplesPerPixel": 1,
      "ScanOptions": "FS",
      "ScanningSequence": "EP",
      "SequenceName": "*epfid2d1_80",
      "SequenceVariant": "SK",
      "SeriesDescription": "func_run-01_task-movie",
      "SeriesNumber": 6,
      "SeriesTime": "190200.298000",
      "SliceLocation": -47.796124200573,
      "SliceThickness": 3.0,
      "SmallestImagePixelValue": 0,
      "SoftwareVersions": "syngo MR E11",
      "SpacingBetweenSlices": 3.0000000102854,
      "SpecificCharacterSet": "ISO_IR 100",
      "StudyID": "1",
      "StudyTime": "184033.530000",
      "TransmitCoilName": "Body",
      "VariableFlipAngleFlag": "N",
      "WindowCenterWidthExplanation": "Algo1",
      "dBdt": 0.0},
    "slices": {}
  },
  "time": {
    "samples": {
      "AcquisitionNumber": [1, 2, 3, 4, 5, 6, 7, 8, 9, 10, 11, 12, 13, 14, 15, 16, 17, 18, 19, 20, 21, 22, 23, 24, 25, 26, 27, 28, 29, 30, 31, 32, 33, 34, 35, 36, 37, 38, 39, 40, 41, 42, 43, 44, 45, 46, 47, 48, 49, 50, 51, 52, 53, 54, 55, 56, 57, 58, 59, 60, 61, 62, 63, 64, 65, 66, 67, 68, 69, 70, 71, 72, 73, 74, 75, 76, 77, 78, 79, 80, 81, 82, 83, 84, 85, 86, 87, 88, 89, 90, 91, 92, 93, 94, 95, 96, 97, 98, 99, 100, 101, 102, 103, 104, 105, 106, 107, 108, 109, 110, 111, 112, 113, 114, 115, 116, 117, 118, 119, 120, 121, 122, 123, 124, 125, 126, 127, 128, 129, 130, 131, 132, 133, 134, 135, 136, 137, 138, 139, 140, 141, 142, 143, 144, 145, 146, 147, 148, 149, 150, 151, 152, 153, 154, 155, 156, 157, 158, 159, 160, 161, 162, 163, 164, 165, 166, 167, 168, 169, 170, 171, 172, 173, 174, 175, 176, 177, 178, 179, 180, 181, 182, 183, 184, 185, 186, 187, 188, 189, 190, 191, 192, 193, 194, 195, 196, 197, 198, 199, 200, 201, 202, 203, 204, 205, 206, 207, 208, 209, 210, 211, 212, 213, 214, 215, 216, 217, 218, 219, 220, 221, 222, 223, 224, 225, 226, 227, 228, 229, 230, 231, 232, 233, 234, 235, 236, 237, 238, 239, 240, 241, 242, 243, 244, 245, 246, 247, 248, 249, 250, 251, 252, 253, 254, 255, 256, 257, 258, 259, 260, 261, 262, 263, 264, 265, 266, 267, 268, 269, 270, 271, 272, 273, 274, 275, 276, 277, 278, 279, 280, 281, 282, 283, 284, 285, 286, 287, 288, 289, 290, 291, 292, 293, 294, 295, 296, 297, 298, 299, 300, 301, 302, 303, 304, 305, 306, 307, 308, 309, 310, 311, 312, 313, 314, 315, 316, 317, 318, 319, 320, 321, 322, 323, 324, 325, 326, 327, 328, 329, 330, 331, 332, 333, 334, 335, 336, 337, 338, 339, 340, 341, 342, 343, 344, 345, 346, 347, 348, 349, 350, 351, 352, 353, 354, 355, 356, 357, 358, 359, 360, 361, 362, 363, 364, 365, 366, 367, 368, 369, 370, 371, 372, 373, 374, 375, 376, 377, 378, 379, 380, 381, 382, 383, 384, 385, 386, 387, 388, 389, 390, 391, 392, 393, 394, 395, 396, 397, 398, 399, 400, 401, 402, 403, 404, 405, 406, 407, 408, 409, 410, 411, 412, 413, 414, 415, 416, 417, 418, 419, 420, 421, 422, 423, 424, 425, 426, 427, 428, 429, 430, 431, 432, 433, 434, 435, 436, 437, 438, 439, 440, 441, 442, 443, 444, 445, 446, 447, 448, 449, 450, 451, 452, 453, 454, 455, 456, 457, 458, 459, 460, 461, 462, 463, 464, 465, 466, 467, 468, 469, 470, 471, 472, 473, 474, 475, 476, 477, 478, 479, 480, 481, 482, 483, 484, 485, 486, 487, 488, 489, 490, 491, 492, 493, 494, 495, 496, 497, 498, 499, 500, 501, 502, 503, 504, 505, 506, 507, 508, 509, 510, 511, 512, 513, 514, 515, 516, 517, 518, 519, 520, 521, 522, 523, 524, 525, 526, 527, 528, 529, 530, 531, 532, 533, 534, 535, 536, 537, 538, 539, 540, 541, 542, 543, 544, 545, 546, 547, 548, 549, 550, 551, 552, 553, 554, 555, 556, 557, 558, 559, 560, 561, 562, 563, 564, 565, 566, 567, 568, 569, 570, 571, 572, 573, 574, 575, 576, 577, 578, 579, 580, 581, 582, 583, 584, 585, 586, 587, 588, 589, 590, 591, 592, 593, 594, 595, 596, 597, 598, 599, 600, 601, 602, 603, 604, 605, 606, 607, 608, 609, 610, 611, 612, 613, 614, 615, 616, 617, 618, 619, 620, 621, 622, 623, 624, 625, 626, 627, 628, 629, 630, 631, 632, 633, 634, 635, 636, 637, 638, 639, 640, 641, 642, 643, 644, 645, 646, 647, 648, 649, 650, 651, 652, 653, 654, 655, 656, 657, 658, 659, 660, 661, 662, 663, 664, 665, 666, 667, 668, 669, 670, 671, 672, 673, 674, 675, 676, 677, 678, 679, 680, 681, 682, 683, 684, 685, 686, 687, 688, 689, 690, 691, 692, 693, 694, 695, 696, 697, 698, 699, 700, 701, 702, 703, 704, 705, 706, 707, 708, 709, 710, 711, 712, 713, 714, 715, 716, 717, 718, 719, 720, 721, 722, 723, 724, 725, 726, 727, 728, 729, 730, 731, 732, 733, 734, 735, 736, 737, 738, 739, 740, 741, 742, 743, 744, 745, 746, 747, 748, 749, 750, 751, 752, 753, 754, 755, 756, 757, 758, 759, 760, 761, 762, 763, 764, 765, 766, 767, 768, 769, 770, 771, 772, 773, 774, 775, 776, 777, 778, 779, 780, 781, 782, 783, 784, 785, 786, 787, 788, 789, 790, 791, 792, 793, 794, 795, 796, 797, 798, 799, 800, 801, 802, 803, 804, 805, 806, 807, 808, 809, 810, 811, 812, 813, 814, 815, 816, 817, 818, 819, 820, 821, 822, 823, 824, 825, 826, 827, 828, 829, 830, 831, 832, 833, 834, 835, 836, 837, 838, 839, 840, 841, 842, 843, 844, 845, 846, 847, 848, 849, 850, 851, 852, 853, 854, 855, 856, 857, 858, 859, 860, 861, 862, 863, 864, 865, 866, 867, 868, 869, 870, 871, 872, 873, 874, 875, 876, 877, 878, 879, 880, 881, 882, 883, 884, 885, 886, 887, 888, 889, 890, 891, 892, 893, 894, 895, 896, 897, 898, 899, 900, 901, 902, 903, 904, 905, 906, 907, 908, 909, 910, 911, 912, 913, 914, 915, 916, 917, 918, 919, 920, 921, 922, 923, 924, 925, 926, 927, 928, 929, 930, 931, 932, 933, 934, 935, 936, 937, 938, 939, 940, 941, 942, 943, 944, 945, 946, 947, 948, 949, 950, 951, 952, 953, 954, 955, 956, 957, 958, 959, 960, 961, 962, 963, 964, 965, 966, 967, 968, 969, 970, 971, 972, 973, 974, 975, 976, 977, 978, 979, 980, 981, 982, 983, 984, 985, 986, 987, 988, 989, 990, 991, 992, 993, 994, 995, 996, 997, 998, 999, 1000, 1001, 1002, 1003, 1004, 1005, 1006, 1007, 1008, 1009, 1010, 1011, 1012, 1013, 1014, 1015, 1016, 1017, 1018, 1019, 1020, 1021, 1022, 1023, 1024, 1025, 1026, 1027, 1028, 1029, 1030, 1031, 1032, 1033, 1034, 1035, 1036, 1037, 1038, 1039, 1040, 1041, 1042, 1043, 1044, 1045, 1046, 1047, 1048, 1049, 1050, 1051, 1052, 1053, 1054, 1055, 1056, 1057, 1058, 1059, 1060, 1061, 1062, 1063, 1064, 1065, 1066, 1067, 1068, 1069, 1070, 1071, 1072, 1073, 1074, 1075, 1076, 1077, 1078, 1079, 1080, 1081, 1082, 1083, 1084, 1085, 1086, 1087, 1088, 1089, 1090, 1091, 1092, 1093, 1094, 1095, 1096, 1097, 1098, 1099, 1100, 1101, 1102, 1103, 1104, 1105, 1106, 1107, 1108, 1109, 1110, 1111, 1112, 1113, 1114, 1115, 1116, 1117, 1118, 1119, 1120, 1121, 1122, 1123, 1124, 1125, 1126, 1127, 1128, 1129, 1130, 1131, 1132, 1133, 1134, 1135, 1136, 1137, 1138, 1139, 1140, 1141, 1142, 1143, 1144, 1145, 1146, 1147, 1148, 1149, 1150, 1151, 1152, 1153, 1154, 1155, 1156, 1157, 1158, 1159, 1160, 1161, 1162, 1163, 1164, 1165, 1166, 1167, 1168, 1169, 1170, 1171, 1172, 1173, 1174, 1175, 1176, 1177, 1178, 1179, 1180, 1181, 1182, 1183, 1184, 1185, 1186, 1187, 1188, 1189, 1190, 1191, 1192, 1193, 1194, 1195, 1196, 1197, 1198, 1199, 1200, 1201, 1202, 1203, 1204, 1205, 1206, 1207, 1208, 1209, 1210, 1211, 1212, 1213, 1214, 1215, 1216, 1217, 1218, 1219, 1220, 1221, 1222, 1223, 1224, 1225, 1226, 1227, 1228, 1229, 1230, 1231, 1232, 1233, 1234, 1235, 1236, 1237, 1238, 1239, 1240, 1241, 1242, 1243, 1244, 1245, 1246, 1247, 1248, 1249, 1250, 1251, 1252, 1253, 1254, 1255, 1256, 1257, 1258, 1259, 1260, 1261, 1262, 1263, 1264, 1265, 1266, 1267, 1268, 1269, 1270, 1271, 1272, 1273, 1274, 1275, 1276, 1277, 1278, 1279, 1280, 1281, 1282, 1283, 1284, 1285, 1286, 1287, 1288, 1289, 1290, 1291, 1292, 1293, 1294, 1295, 1296, 1297, 1298, 1299, 1300, 1301, 1302, 1303, 1304, 1305, 1306, 1307, 1308, 1309, 1310, 1311, 1312, 1313, 1314, 1315, 1316, 1317, 1318, 1319, 1320, 1321, 1322, 1323, 1324, 1325, 1326, 1327, 1328, 1329, 1330, 1331, 1332, 1333, 1334, 1335, 1336, 1337, 1338, 1339, 1340, 1341, 1342, 1343, 1344, 1345, 1346, 1347, 1348, 1349, 1350, 1351, 1352, 1353, 1354, 1355, 1356, 1357, 1358, 1359, 1360, 1361, 1362, 1363, 1364, 1365, 1366, 1367, 1368, 1369],
      "AcquisitionTime": ["190158.480000", "190200.480000", "190202.480000", "190204.480000", "190206.480000", "190208.480000", "190210.480000", "190212.480000", "190214.480000", "190216.480000", "190218.480000", "190220.480000", "190222.480000", "190224.480000", "190226.480000", "190228.480000", "190230.480000", "190232.480000", "190234.480000", "190236.480000", "190238.480000", "190240.480000", "190242.480000", "190244.480000", "190246.480000", "190248.480000", "190250.480000", "190252.480000", "190254.480000", "190256.480000", "190258.480000", "190300.480000", "190302.480000", "190304.480000", "190306.480000", "190308.480000", "190310.480000", "190312.480000", "190314.480000", "190316.480000", "190318.480000", "190320.480000", "190322.480000", "190324.480000", "190326.480000", "190328.480000", "190330.480000", "190332.480000", "190334.480000", "190336.480000", "190338.480000", "190340.480000", "190342.480000", "190344.480000", "190346.480000", "190348.480000", "190350.480000", "190352.480000", "190354.480000", "190356.480000", "190358.480000", "190400.480000", "190402.480000", "190404.480000", "190406.480000", "190408.480000", "190410.480000", "190412.480000", "190414.480000", "190416.480000", "190418.480000", "190420.480000", "190422.480000", "190424.480000", "190426.480000", "190428.480000", "190430.480000", "190432.480000", "190434.480000", "190436.480000", "190438.480000", "190440.480000", "190442.480000", "190444.480000", "190446.480000", "190448.480000", "190450.480000", "190452.480000", "190454.480000", "190456.480000", "190458.480000", "190500.480000", "190502.480000", "190504.480000", "190506.480000", "190508.480000", "190510.480000", "190512.480000", "190514.480000", "190516.480000", "190518.480000", "190520.480000", "190522.480000", "190524.480000", "190526.480000", "190528.480000", "190530.480000", "190532.480000", "190534.480000", "190536.480000", "190538.480000", "190540.480000", "190542.480000", "190544.480000", "190546.480000", "190548.480000", "190550.480000", "190552.480000", "190554.480000", "190556.480000", "190558.480000", "190600.480000", "190602.480000", "190604.480000", "190606.480000", "190608.480000", "190610.480000", "190612.480000", "190614.480000", "190616.480000", "190618.480000", "190620.480000", "190622.480000", "190624.480000", "190626.480000", "190628.480000", "190630.480000", "190632.480000", "190634.480000", "190636.480000", "190638.480000", "190640.480000", "190642.480000", "190644.480000", "190646.480000", "190648.480000", "190650.480000", "190652.480000", "190654.480000", "190656.480000", "190658.480000", "190700.480000", "190702.480000", "190704.480000", "190706.480000", "190708.480000", "190710.480000", "190712.480000", "190714.480000", "190716.480000", "190718.480000", "190720.480000", "190722.480000", "190724.480000", "190726.480000", "190728.480000", "190730.480000", "190732.480000", "190734.480000", "190736.480000", "190738.480000", "190740.480000", "190742.480000", "190744.480000", "190746.480000", "190748.480000", "190750.480000", "190752.480000", "190754.480000", "190756.480000", "190758.480000", "190800.480000", "190802.480000", "190804.480000", "190806.480000", "190808.480000", "190810.480000", "190812.480000", "190814.480000", "190816.480000", "190818.480000", "190820.480000", "190822.480000", "190824.480000", "190826.480000", "190828.480000", "190830.480000", "190832.480000", "190834.480000", "190836.480000", "190838.480000", "190840.480000", "190842.480000", "190844.480000", "190846.480000", "190848.480000", "190850.480000", "190852.480000", "190854.480000", "190856.480000", "190858.480000", "190900.480000", "190902.480000", "190904.480000", "190906.480000", "190908.480000", "190910.480000", "190912.480000", "190914.480000", "190916.480000", "190918.480000", "190920.480000", "190922.480000", "190924.480000", "190926.480000", "190928.480000", "190930.480000", "190932.480000", "190934.480000", "190936.480000", "190938.480000", "190940.480000", "190942.480000", "190944.480000", "190946.480000", "190948.480000", "190950.480000", "190952.480000", "190954.480000", "190956.480000", "190958.480000", "191000.480000", "191002.480000", "191004.480000", "191006.480000", "191008.480000", "191010.480000", "191012.480000", "191014.480000", "191016.480000", "191018.480000", "191020.480000", "191022.480000", "191024.480000", "191026.480000", "191028.480000", "191030.480000", "191032.480000", "191034.480000", "191036.480000", "191038.480000", "191040.480000", "191042.480000", "191044.480000", "191046.480000", "191048.480000", "191050.480000", "191052.480000", "191054.480000", "191056.480000", "191058.480000", "191100.480000", "191102.480000", "191104.480000", "191106.480000", "191108.480000", "191110.480000", "191112.480000", "191114.480000", "191116.480000", "191118.480000", "191120.480000", "191122.480000", "191124.480000", "191126.480000", "191128.480000", "191130.480000", "191132.480000", "191134.480000", "191136.480000", "191138.480000", "191140.480000", "191142.480000", "191144.480000", "191146.480000", "191148.480000", "191150.480000", "191152.480000", "191154.480000", "191156.480000", "191158.480000", "191200.480000", "191202.480000", "191204.480000", "191206.480000", "191208.480000", "191210.480000", "191212.480000", "191214.480000", "191216.480000", "191218.480000", "191220.480000", "191222.480000", "191224.480000", "191226.480000", "191228.480000", "191230.480000", "191232.480000", "191234.480000", "191236.480000", "191238.480000", "191240.480000", "191242.480000", "191244.480000", "191246.480000", "191248.480000", "191250.480000", "191252.480000", "191254.480000", "191256.480000", "191258.480000", "191300.480000", "191302.480000", "191304.480000", "191306.480000", "191308.480000", "191310.480000", "191312.480000", "191314.480000", "191316.480000", "191318.480000", "191320.480000", "191322.480000", "191324.480000", "191326.480000", "191328.480000", "191330.480000", "191332.480000", "191334.480000", "191336.480000", "191338.480000", "191340.480000", "191342.480000", "191344.480000", "191346.480000", "191348.480000", "191350.480000", "191352.480000", "191354.480000", "191356.480000", "191358.480000", "191400.480000", "191402.480000", "191404.480000", "191406.480000", "191408.480000", "191410.480000", "191412.480000", "191414.480000", "191416.480000", "191418.480000", "191420.480000", "191422.480000", "191424.480000", "191426.480000", "191428.480000", "191430.480000", "191432.480000", "191434.480000", "191436.480000", "191438.480000", "191440.480000", "191442.480000", "191444.480000", "191446.480000", "191448.480000", "191450.480000", "191452.480000", "191454.480000", "191456.480000", "191458.480000", "191500.480000", "191502.480000", "191504.480000", "191506.480000", "191508.480000", "191510.480000", "191512.480000", "191514.480000", "191516.480000", "191518.480000", "191520.480000", "191522.480000", "191524.480000", "191526.480000", "191528.480000", "191530.480000", "191532.480000", "191534.480000", "191536.480000", "191538.480000", "191540.480000", "191542.480000", "191544.480000", "191546.480000", "191548.480000", "191550.480000", "191552.480000", "191554.480000", "191556.480000", "191558.480000", "191600.480000", "191602.480000", "191604.480000", "191606.480000", "191608.480000", "191610.480000", "191612.480000", "191614.480000", "191616.480000", "191618.480000", "191620.480000", "191622.480000", "191624.480000", "191626.480000", "191628.480000", "191630.480000", "191632.480000", "191634.480000", "191636.480000", "191638.480000", "191640.480000", "191642.480000", "191644.480000", "191646.480000", "191648.480000", "191650.480000", "191652.480000", "191654.480000", "191656.480000", "191658.480000", "191700.480000", "191702.480000", "191704.480000", "191706.480000", "191708.480000", "191710.480000", "191712.480000", "191714.480000", "191716.480000", "191718.480000", "191720.480000", "191722.480000", "191724.480000", "191726.480000", "191728.480000", "191730.480000", "191732.480000", "191734.480000", "191736.480000", "191738.480000", "191740.480000", "191742.480000", "191744.480000", "191746.480000", "191748.480000", "191750.480000", "191752.480000", "191754.480000", "191756.480000", "191758.480000", "191800.480000", "191802.480000", "191804.480000", "191806.480000", "191808.480000", "191810.480000", "191812.480000", "191814.480000", "191816.480000", "191818.480000", "191820.480000", "191822.480000", "191824.480000", "191826.480000", "191828.480000", "191830.480000", "191832.480000", "191834.480000", "191836.480000", "191838.480000", "191840.480000", "191842.480000", "191844.480000", "191846.480000", "191848.480000", "191850.480000", "191852.480000", "191854.480000", "191856.480000", "191858.480000", "191900.480000", "191902.480000", "191904.480000", "191906.480000", "191908.480000", "191910.480000", "191912.480000", "191914.480000", "191916.480000", "191918.480000", "191920.480000", "191922.480000", "191924.480000", "191926.480000", "191928.480000", "191930.480000", "191932.480000", "191934.480000", "191936.480000", "191938.480000", "191940.480000", "191942.480000", "191944.480000", "191946.480000", "191948.480000", "191950.480000", "191952.480000", "191954.480000", "191956.480000", "191958.480000", "192000.480000", "192002.480000", "192004.480000", "192006.480000", "192008.480000", "192010.480000", "192012.480000", "192014.480000", "192016.480000", "192018.480000", "192020.480000", "192022.480000", "192024.480000", "192026.480000", "192028.480000", "192030.480000", "192032.480000", "192034.480000", "192036.480000", "192038.480000", "192040.480000", "192042.480000", "192044.480000", "192046.480000", "192048.480000", "192050.480000", "192052.480000", "192054.480000", "192056.480000", "192058.480000", "192100.480000", "192102.480000", "192104.480000", "192106.480000", "192108.480000", "192110.480000", "192112.480000", "192114.480000", "192116.480000", "192118.480000", "192120.480000", "192122.480000", "192124.480000", "192126.480000", "192128.480000", "192130.480000", "192132.480000", "192134.480000", "192136.480000", "192138.480000", "192140.480000", "192142.480000", "192144.480000", "192146.480000", "192148.480000", "192150.480000", "192152.480000", "192154.480000", "192156.480000", "192158.480000", "192200.480000", "192202.480000", "192204.480000", "192206.480000", "192208.480000", "192210.480000", "192212.480000", "192214.480000", "192216.480000", "192218.480000", "192220.480000", "192222.480000", "192224.480000", "192226.480000", "192228.480000", "192230.480000", "192232.480000", "192234.480000", "192236.480000", "192238.480000", "192240.480000", "192242.480000", "192244.480000", "192246.480000", "192248.480000", "192250.480000", "192252.480000", "192254.480000", "192256.480000", "192258.480000", "192300.480000", "192302.480000", "192304.480000", "192306.480000", "192308.480000", "192310.480000", "192312.480000", "192314.480000", "192316.480000", "192318.480000", "192320.480000", "192322.480000", "192324.480000", "192326.480000", "192328.480000", "192330.480000", "192332.480000", "192334.480000", "192336.480000", "192338.480000", "192340.480000", "192342.480000", "192344.480000", "192346.480000", "192348.480000", "192350.480000", "192352.480000", "192354.480000", "192356.480000", "192358.480000", "192400.480000", "192402.480000", "192404.480000", "192406.480000", "192408.480000", "192410.480000", "192412.480000", "192414.480000", "192416.480000", "192418.480000", "192420.480000", "192422.480000", "192424.480000", "192426.480000", "192428.480000", "192430.480000", "192432.480000", "192434.480000", "192436.480000", "192438.480000", "192440.480000", "192442.480000", "192444.480000", "192446.480000", "192448.480000", "192450.480000", "192452.480000", "192454.480000", "192456.480000", "192458.480000", "192500.480000", "192502.480000", "192504.480000", "192506.480000", "192508.480000", "192510.480000", "192512.480000", "192514.480000", "192516.480000", "192518.480000", "192520.480000", "192522.480000", "192524.480000", "192526.480000", "192528.480000", "192530.480000", "192532.480000", "192534.480000", "192536.480000", "192538.480000", "192540.480000", "192542.480000", "192544.480000", "192546.480000", "192548.480000", "192550.480000", "192552.480000", "192554.480000", "192556.480000", "192558.480000", "192600.480000", "192602.480000", "192604.480000", "192606.480000", "192608.480000", "192610.480000", "192612.480000", "192614.480000", "192616.480000", "192618.480000", "192620.480000", "192622.480000", "192624.480000", "192626.480000", "192628.480000", "192630.480000", "192632.480000", "192634.480000", "192636.480000", "192638.480000", "192640.480000", "192642.480000", "192644.480000", "192646.480000", "192648.480000", "192650.480000", "192652.480000", "192654.480000", "192656.480000", "192658.480000", "192700.480000", "192702.480000", "192704.480000", "192706.480000", "192708.480000", "192710.480000", "192712.480000", "192714.480000", "192716.480000", "192718.480000", "192720.480000", "192722.480000", "192724.480000", "192726.480000", "192728.480000", "192730.480000", "192732.480000", "192734.480000", "192736.480000", "192738.480000", "192740.480000", "192742.480000", "192744.480000", "192746.480000", "192748.480000", "192750.480000", "192752.480000", "192754.480000", "192756.480000", "192758.480000", "192800.480000", "192802.480000", "192804.480000", "192806.480000", "192808.480000", "192810.480000", "192812.480000", "192814.480000", "192816.480000", "192818.480000", "192820.480000", "192822.480000", "192824.480000", "192826.480000", "192828.480000", "192830.480000", "192832.480000", "192834.480000", "192836.480000", "192838.480000", "192840.480000", "192842.480000", "192844.480000", "192846.480000", "192848.480000", "192850.480000", "192852.480000", "192854.480000", "192856.480000", "192858.480000", "192900.480000", "192902.480000", "192904.480000", "192906.480000", "192908.480000", "192910.480000", "192912.480000", "192914.480000", "192916.480000", "192918.480000", "192920.480000", "192922.480000", "192924.480000", "192926.480000", "192928.480000", "192930.480000", "192932.480000", "192934.480000", "192936.480000", "192938.480000", "192940.480000", "192942.480000", "192944.480000", "192946.480000", "192948.480000", "192950.480000", "192952.480000", "192954.480000", "192956.480000", "192958.480000", "193000.480000", "193002.480000", "193004.480000", "193006.480000", "193008.480000", "193010.480000", "193012.480000", "193014.480000", "193016.480000", "193018.480000", "193020.480000", "193022.480000", "193024.480000", "193026.480000", "193028.480000", "193030.480000", "193032.480000", "193034.480000", "193036.480000", "193038.480000", "193040.480000", "193042.480000", "193044.480000", "193046.480000", "193048.480000", "193050.480000", "193052.480000", "193054.480000", "193056.480000", "193058.480000", "193100.480000", "193102.480000", "193104.480000", "193106.480000", "193108.480000", "193110.480000", "193112.480000", "193114.480000", "193116.480000", "193118.480000", "193120.480000", "193122.480000", "193124.480000", "193126.480000", "193128.480000", "193130.480000", "193132.480000", "193134.480000", "193136.480000", "193138.480000", "193140.480000", "193142.480000", "193144.480000", "193146.480000", "193148.480000", "193150.480000", "193152.480000", "193154.480000", "193156.480000", "193158.480000", "193200.480000", "193202.480000", "193204.480000", "193206.480000", "193208.480000", "193210.480000", "193212.480000", "193214.480000", "193216.480000", "193218.480000", "193220.480000", "193222.480000", "193224.480000", "193226.480000", "193228.480000", "193230.480000", "193232.480000", "193234.480000", "193236.480000", "193238.480000", "193240.480000", "193242.480000", "193244.480000", "193246.480000", "193248.480000", "193250.480000", "193252.480000", "193254.480000", "193256.480000", "193258.480000", "193300.480000", "193302.480000", "193304.480000", "193306.480000", "193308.480000", "193310.480000", "193312.480000", "193314.480000", "193316.480000", "193318.480000", "193320.480000", "193322.480000", "193324.480000", "193326.480000", "193328.480000", "193330.480000", "193332.480000", "193334.480000", "193336.480000", "193338.480000", "193340.480000", "193342.480000", "193344.480000", "193346.480000", "193348.480000", "193350.480000", "193352.480000", "193354.480000", "193356.480000", "193358.480000", "193400.480000", "193402.480000", "193404.480000", "193406.480000", "193408.480000", "193410.480000", "193412.480000", "193414.480000", "193416.480000", "193418.480000", "193420.480000", "193422.480000", "193424.480000", "193426.480000", "193428.480000", "193430.480000", "193432.480000", "193434.480000", "193436.480000", "193438.480000", "193440.480000", "193442.480000", "193444.480000", "193446.480000", "193448.480000", "193450.480000", "193452.480000", "193454.480000", "193456.480000", "193458.480000", "193500.480000", "193502.480000", "193504.480000", "193506.480000", "193508.480000", "193510.480000", "193512.480000", "193514.480000", "193516.480000", "193518.480000", "193520.480000", "193522.480000", "193524.480000", "193526.480000", "193528.480000", "193530.480000", "193532.480000", "193534.480000", "193536.480000", "193538.480000", "193540.480000", "193542.480000", "193544.480000", "193546.480000", "193548.480000", "193550.480000", "193552.480000", "193554.480000", "193556.480000", "193558.480000", "193600.480000", "193602.480000", "193604.480000", "193606.480000", "193608.480000", "193610.480000", "193612.480000", "193614.480000", "193616.480000", "193618.480000", "193620.480000", "193622.480000", "193624.480000", "193626.480000", "193628.480000", "193630.480000", "193632.480000", "193634.480000", "193636.480000", "193638.480000", "193640.480000", "193642.480000", "193644.480000", "193646.480000", "193648.480000", "193650.480000", "193652.480000", "193654.480000", "193656.480000", "193658.480000", "193700.480000", "193702.480000", "193704.480000", "193706.480000", "193708.480000", "193710.480000", "193712.480000", "193714.480000", "193716.480000", "193718.480000", "193720.480000", "193722.4800