{
  "AcquisitionMatrixPE": 80,
  "AcquisitionNumber": 1,
  "AcquisitionTime": "21:24:2.845000",
  "BandwidthPerPixelPhaseEncode": 51.02,
  "BaseResolution": 80,
  "BodyPartExamined": "BRAIN",
  "ConsistencyInfo": "N4_VE11C_LATEST_20160120",
  "ConversionSoftware": "dcm2niix",
  "ConversionSoftwareVersion": "v1.0.20170923 (OpenJPEG build) GCC6.3.0",
  "DerivedVendorReportedEchoSpacing": 0.000490004,
  "DeviceSerialNumber": "66112",
  "DwellTime": 2.2e-06,
  "EchoTime": 0.025,
  "EchoTrainLength": 39,
  "EffectiveEchoSpacing": 0.000245002,
  "FlipAngle": 75,
  "ImageType": [
    "ORIGINAL",
    "PRIMARY",
    "FMRI",
    "NONE",
    "ND",
    "NORM",
    "MOSAIC"
],
  "InstitutionAddress": "Maynard_3_Hanover_NH_US_03755",
  "InstitutionName": "Dartmouth_College_-_PBS",
  "MagneticFieldStrength": 3,
  "Manufacturer": "Siemens",
  "ManufacturersModelName": "Prisma",
  "Modality": "MR",
  "ParallelReductionFactorInPlane": 2,
  "PartialFourier": 1,
  "PercentPhaseFOV": 100,
  "PhaseEncodingDirection": "j-",
  "PhaseEncodingSteps": 79,
  "PhaseResolution": 1,
  "ProcedureStepDescription": "Chang_Chang_1039_fnlpilot",
  "ProtocolName": "func_run-01_task-movie",
  "PulseSequenceDetails": "%SiemensSeq%_ep2d_bold",
  "ReceiveCoilActiveElements": "HEA;HEP",
  "ReceiveCoilName": "Head_32",
  "ReconMatrixPE": 80,
  "RepetitionTime": 2,
  "ScanOptions": "FS",
  "ScanningSequence": "EP",
  "SequenceName": "_epfid2d1_80",
  "SequenceVariant": "SK",
  "SeriesDescription": "func_run-01_task-movie",
  "SliceTiming": [0.99, 0, 1.04, 0.05, 1.09, 0.1, 1.14, 0.15, 1.19, 0.2, 1.2375, 0.2475, 1.2875, 0.2975, 1.3375, 0.3475, 1.3875, 0.3975, 1.435, 0.4475, 1.485, 0.495, 1.535, 0.545, 1.585, 0.595, 1.635, 0.645, 1.6825, 0.695, 1.7325, 0.7425, 1.7825, 0.7925, 1.8325, 0.8425, 1.8825, 0.8925, 1.93, 0.9425],
  "SoftwareVersions": "syngo_MR_E11",
  "StationName": "AWP66112",
  "TaskName": "movie",
  "TotalReadoutTime": 0.0193552,
  "dcmmeta_affine": [
    [-2.996060609817505, 0.10410109907388687, 0.11306261271238327, 116.41275787353516],
    [0.1057685911655426, 2.997832775115967, 0.04255552962422371, -114.77511596679688],
    [0.11150424927473068, -0.04648580774664879, 2.9975666999816895, -57.3192253112793],
    [0.0, 0.0, 0.0, 1.0]
],
  "dcmmeta_reorient_transform": [
    [0.0, -1.0, 0.0, 79.0],
    [1.0, 0.0, 0.0, 0.0],
    [0.0, 0.0, 1.0, 0.0],
    [0.0, 0.0, 0.0, 1.0]
],
  "dcmmeta_shape": [80, 80, 40, 1369],
  "dcmmeta_slice_dim": 2,
  "dcmmeta_version": 0.6,
  "global": {
    "const": {
      "AccessionNumber": "A001108",
      "AcquisitionMatrix": [80, 0, 0, 80],
      "AngioFlag": "N",
      "BitsAllocated": 16,
      "BitsStored": 12,
      "BodyPartExamined": "BRAIN",
      "Columns": 560,
      "EchoNumbers": 1,
      "EchoTime": 25.0,
      "EchoTrainLength": 39,
      "FlipAngle": 75.0,
      "HighBit": 11,
      "ImageOrientationPatient": [0.99868690496509, -0.0352561979105, 0.03716808254612, 0.03470036529513, 0.99927762972325, 0.01549526970011],
      "ImagePositionPatient": [-868.67558131439, -816.14911363887, -98.909216771843],
      "ImageType": [
        "ORIGINAL",
        "PRIMARY",
        "FMRI",
        "NONE",
        "ND",
        "NORM",
        "MOSAIC"
],
      "ImagedNucleus": "1H",
      "ImagingFrequency": 123.252271,
      "InPlanePhaseEncodingDirection": "COL",
      "MRAcquisitionType": "2D",
      "MagneticFieldStrength": 3.0,
      "Manufacturer": "SIEMENS",
      "ManufacturerModelName": "Prisma",
      "Modality": "MR",
      "NumberOfAverages": 1.0,
      "NumberOfPhaseEncodingSteps": 79,
      "PercentPhaseFieldOfView": 100.0,
      "PercentSampling": 100.0,
      "PerformedProcedureStepStartTime": "210630.768000",
      "PhotometricInterpretation": "MONOCHROME2",
      "PixelBandwidth": 2840.0,
      "PixelRepresentation": 0,
      "PixelSpacing": [3.0, 3.0],
      "PositionReferenceIndicator": "",
      "ProtocolName": "func_run-01_task-movie",
      "RepetitionTime": 2000.0,
      "Rows": 560,
      "SAR": 0.0839431861077,
      "SamplesPerPixel": 1,
      "ScanOptions": "FS",
      "ScanningSequence": "EP",
      "SequenceName": "*epfid2d1_80",
      "SequenceVariant": "SK",
      "SeriesDescription": "func_run-01_task-movie",
      "SeriesNumber": 9,
      "SeriesTime": "212404.451000",
      "SliceLocation": -54.513526847609,
      "SliceThickness": 3.0,
      "SmallestImagePixelValue": 0,
      "SoftwareVersions": "syngo MR E11",
      "SpacingBetweenSlices": 3.0000000538038,
      "SpecificCharacterSet": "ISO_IR 100",
      "StudyID": "1",
      "StudyTime": "210630.708000",
      "TransmitCoilName": "Body",
      "VariableFlipAngleFlag": "N",
      "WindowCenterWidthExplanation": "Algo1",
      "dBdt": 0.0},
    "slices": {}
  },
  "time": {
    "samples": {
      "AcquisitionNumber": [1, 2, 3, 4, 5, 6, 7, 8, 9, 10, 11, 12, 13, 14, 15, 16, 17, 18, 19, 20, 21, 22, 23, 24, 25, 26, 27, 28, 29, 30, 31, 32, 33, 34, 35, 36, 37, 38, 39, 40, 41, 42, 43, 44, 45, 46, 47, 48, 49, 50, 51, 52, 53, 54, 55, 56, 57, 58, 59, 60, 61, 62, 63, 64, 65, 66, 67, 68, 69, 70, 71, 72, 73, 74, 75, 76, 77, 78, 79, 80, 81, 82, 83, 84, 85, 86, 87, 88, 89, 90, 91, 92, 93, 94, 95, 96, 97, 98, 99, 100, 101, 102, 103, 104, 105, 106, 107, 108, 109, 110, 111, 112, 113, 114, 115, 116, 117, 118, 119, 120, 121, 122, 123, 124, 125, 126, 127, 128, 129, 130, 131, 132, 133, 134, 135, 136, 137, 138, 139, 140, 141, 142, 143, 144, 145, 146, 147, 148, 149, 150, 151, 152, 153, 154, 155, 156, 157, 158, 159, 160, 161, 162, 163, 164, 165, 166, 167, 168, 169, 170, 171, 172, 173, 174, 175, 176, 177, 178, 179, 180, 181, 182, 183, 184, 185, 186, 187, 188, 189, 190, 191, 192, 193, 194, 195, 196, 197, 198, 199, 200, 201, 202, 203, 204, 205, 206, 207, 208, 209, 210, 211, 212, 213, 214, 215, 216, 217, 218, 219, 220, 221, 222, 223, 224, 225, 226, 227, 228, 229, 230, 231, 232, 233, 234, 235, 236, 237, 238, 239, 240, 241, 242, 243, 244, 245, 246, 247, 248, 249, 250, 251, 252, 253, 254, 255, 256, 257, 258, 259, 260, 261, 262, 263, 264, 265, 266, 267, 268, 269, 270, 271, 272, 273, 274, 275, 276, 277, 278, 279, 280, 281, 282, 283, 284, 285, 286, 287, 288, 289, 290, 291, 292, 293, 294, 295, 296, 297, 298, 299, 300, 301, 302, 303, 304, 305, 306, 307, 308, 309, 310, 311, 312, 313, 314, 315, 316, 317, 318, 319, 320, 321, 322, 323, 324, 325, 326, 327, 328, 329, 330, 331, 332, 333, 334, 335, 336, 337, 338, 339, 340, 341, 342, 343, 344, 345, 346, 347, 348, 349, 350, 351, 352, 353, 354, 355, 356, 357, 358, 359, 360, 361, 362, 363, 364, 365, 366, 367, 368, 369, 370, 371, 372, 373, 374, 375, 376, 377, 378, 379, 380, 381, 382, 383, 384, 385, 386, 387, 388, 389, 390, 391, 392, 393, 394, 395, 396, 397, 398, 399, 400, 401, 402, 403, 404, 405, 406, 407, 408, 409, 410, 411, 412, 413, 414, 415, 416, 417, 418, 419, 420, 421, 422, 423, 424, 425, 426, 427, 428, 429, 430, 431, 432, 433, 434, 435, 436, 437, 438, 439, 440, 441, 442, 443, 444, 445, 446, 447, 448, 449, 450, 451, 452, 453, 454, 455, 456, 457, 458, 459, 460, 461, 462, 463, 464, 465, 466, 467, 468, 469, 470, 471, 472, 473, 474, 475, 476, 477, 478, 479, 480, 481, 482, 483, 484, 485, 486, 487, 488, 489, 490, 491, 492, 493, 494, 495, 496, 497, 498, 499, 500, 501, 502, 503, 504, 505, 506, 507, 508, 509, 510, 511, 512, 513, 514, 515, 516, 517, 518, 519, 520, 521, 522, 523, 524, 525, 526, 527, 528, 529, 530, 531, 532, 533, 534, 535, 536, 537, 538, 539, 540, 541, 542, 543, 544, 545, 546, 547, 548, 549, 550, 551, 552, 553, 554, 555, 556, 557, 558, 559, 560, 561, 562, 563, 564, 565, 566, 567, 568, 569, 570, 571, 572, 573, 574, 575, 576, 577, 578, 579, 580, 581, 582, 583, 584, 585, 586, 587, 588, 589, 590, 591, 592, 593, 594, 595, 596, 597, 598, 599, 600, 601, 602, 603, 604, 605, 606, 607, 608, 609, 610, 611, 612, 613, 614, 615, 616, 617, 618, 619, 620, 621, 622, 623, 624, 625, 626, 627, 628, 629, 630, 631, 632, 633, 634, 635, 636, 637, 638, 639, 640, 641, 642, 643, 644, 645, 646, 647, 648, 649, 650, 651, 652, 653, 654, 655, 656, 657, 658, 659, 660, 661, 662, 663, 664, 665, 666, 667, 668, 669, 670, 671, 672, 673, 674, 675, 676, 677, 678, 679, 680, 681, 682, 683, 684, 685, 686, 687, 688, 689, 690, 691, 692, 693, 694, 695, 696, 697, 698, 699, 700, 701, 702, 703, 704, 705, 706, 707, 708, 709, 710, 711, 712, 713, 714, 715, 716, 717, 718, 719, 720, 721, 722, 723, 724, 725, 726, 727, 728, 729, 730, 731, 732, 733, 734, 735, 736, 737, 738, 739, 740, 741, 742, 743, 744, 745, 746, 747, 748, 749, 750, 751, 752, 753, 754, 755, 756, 757, 758, 759, 760, 761, 762, 763, 764, 765, 766, 767, 768, 769, 770, 771, 772, 773, 774, 775, 776, 777, 778, 779, 780, 781, 782, 783, 784, 785, 786, 787, 788, 789, 790, 791, 792, 793, 794, 795, 796, 797, 798, 799, 800, 801, 802, 803, 804, 805, 806, 807, 808, 809, 810, 811, 812, 813, 814, 815, 816, 817, 818, 819, 820, 821, 822, 823, 824, 825, 826, 827, 828, 829, 830, 831, 832, 833, 834, 835, 836, 837, 838, 839, 840, 841, 842, 843, 844, 845, 846, 847, 848, 849, 850, 851, 852, 853, 854, 855, 856, 857, 858, 859, 860, 861, 862, 863, 864, 865, 866, 867, 868, 869, 870, 871, 872, 873, 874, 875, 876, 877, 878, 879, 880, 881, 882, 883, 884, 885, 886, 887, 888, 889, 890, 891, 892, 893, 894, 895, 896, 897, 898, 899, 900, 901, 902, 903, 904, 905, 906, 907, 908, 909, 910, 911, 912, 913, 914, 915, 916, 917, 918, 919, 920, 921, 922, 923, 924, 925, 926, 927, 928, 929, 930, 931, 932, 933, 934, 935, 936, 937, 938, 939, 940, 941, 942, 943, 944, 945, 946, 947, 948, 949, 950, 951, 952, 953, 954, 955, 956, 957, 958, 959, 960, 961, 962, 963, 964, 965, 966, 967, 968, 969, 970, 971, 972, 973, 974, 975, 976, 977, 978, 979, 980, 981, 982, 983, 984, 985, 986, 987, 988, 989, 990, 991, 992, 993, 994, 995, 996, 997, 998, 999, 1000, 1001, 1002, 1003, 1004, 1005, 1006, 1007, 1008, 1009, 1010, 1011, 1012, 1013, 1014, 1015, 1016, 1017, 1018, 1019, 1020, 1021, 1022, 1023, 1024, 1025, 1026, 1027, 1028, 1029, 1030, 1031, 1032, 1033, 1034, 1035, 1036, 1037, 1038, 1039, 1040, 1041, 1042, 1043, 1044, 1045, 1046, 1047, 1048, 1049, 1050, 1051, 1052, 1053, 1054, 1055, 1056, 1057, 1058, 1059, 1060, 1061, 1062, 1063, 1064, 1065, 1066, 1067, 1068, 1069, 1070, 1071, 1072, 1073, 1074, 1075, 1076, 1077, 1078, 1079, 1080, 1081, 1082, 1083, 1084, 1085, 1086, 1087, 1088, 1089, 1090, 1091, 1092, 1093, 1094, 1095, 1096, 1097, 1098, 1099, 1100, 1101, 1102, 1103, 1104, 1105, 1106, 1107, 1108, 1109, 1110, 1111, 1112, 1113, 1114, 1115, 1116, 1117, 1118, 1119, 1120, 1121, 1122, 1123, 1124, 1125, 1126, 1127, 1128, 1129, 1130, 1131, 1132, 1133, 1134, 1135, 1136, 1137, 1138, 1139, 1140, 1141, 1142, 1143, 1144, 1145, 1146, 1147, 1148, 1149, 1150, 1151, 1152, 1153, 1154, 1155, 1156, 1157, 1158, 1159, 1160, 1161, 1162, 1163, 1164, 1165, 1166, 1167, 1168, 1169, 1170, 1171, 1172, 1173, 1174, 1175, 1176, 1177, 1178, 1179, 1180, 1181, 1182, 1183, 1184, 1185, 1186, 1187, 1188, 1189, 1190, 1191, 1192, 1193, 1194, 1195, 1196, 1197, 1198, 1199, 1200, 1201, 1202, 1203, 1204, 1205, 1206, 1207, 1208, 1209, 1210, 1211, 1212, 1213, 1214, 1215, 1216, 1217, 1218, 1219, 1220, 1221, 1222, 1223, 1224, 1225, 1226, 1227, 1228, 1229, 1230, 1231, 1232, 1233, 1234, 1235, 1236, 1237, 1238, 1239, 1240, 1241, 1242, 1243, 1244, 1245, 1246, 1247, 1248, 1249, 1250, 1251, 1252, 1253, 1254, 1255, 1256, 1257, 1258, 1259, 1260, 1261, 1262, 1263, 1264, 1265, 1266, 1267, 1268, 1269, 1270, 1271, 1272, 1273, 1274, 1275, 1276, 1277, 1278, 1279, 1280, 1281, 1282, 1283, 1284, 1285, 1286, 1287, 1288, 1289, 1290, 1291, 1292, 1293, 1294, 1295, 1296, 1297, 1298, 1299, 1300, 1301, 1302, 1303, 1304, 1305, 1306, 1307, 1308, 1309, 1310, 1311, 1312, 1313, 1314, 1315, 1316, 1317, 1318, 1319, 1320, 1321, 1322, 1323, 1324, 1325, 1326, 1327, 1328, 1329, 1330, 1331, 1332, 1333, 1334, 1335, 1336, 1337, 1338, 1339, 1340, 1341, 1342, 1343, 1344, 1345, 1346, 1347, 1348, 1349, 1350, 1351, 1352, 1353, 1354, 1355, 1356, 1357, 1358, 1359, 1360, 1361, 1362, 1363, 1364, 1365, 1366, 1367, 1368, 1369],
      "AcquisitionTime": ["212402.845000", "212404.845000", "212406.845000", "212408.845000", "212410.845000", "212412.845000", "212414.845000", "212416.845000", "212418.845000", "212420.845000", "212422.845000", "212424.845000", "212426.845000", "212428.845000", "212430.845000", "212432.845000", "212434.845000", "212436.845000", "212438.845000", "212440.845000", "212442.845000", "212444.845000", "212446.845000", "212448.845000", "212450.845000", "212452.845000", "212454.845000", "212456.845000", "212458.845000", "212500.845000", "212502.845000", "212504.845000", "212506.845000", "212508.845000", "212510.845000", "212512.845000", "212514.845000", "212516.845000", "212518.845000", "212520.845000", "212522.845000", "212524.845000", "212526.845000", "212528.845000", "212530.845000", "212532.845000", "212534.845000", "212536.845000", "212538.845000", "212540.845000", "212542.845000", "212544.845000", "212546.845000", "212548.845000", "212550.845000", "212552.845000", "212554.845000", "212556.845000", "212558.845000", "212600.845000", "212602.845000", "212604.845000", "212606.845000", "212608.845000", "212610.845000", "212612.845000", "212614.845000", "212616.845000", "212618.845000", "212620.845000", "212622.845000", "212624.845000", "212626.845000", "212628.845000", "212630.845000", "212632.845000", "212634.845000", "212636.845000", "212638.845000", "212640.845000", "212642.845000", "212644.845000", "212646.845000", "212648.845000", "212650.845000", "212652.845000", "212654.845000", "212656.845000", "212658.845000", "212700.845000", "212702.845000", "212704.845000", "212706.845000", "212708.845000", "212710.845000", "212712.845000", "212714.845000", "212716.845000", "212718.845000", "212720.845000", "212722.845000", "212724.845000", "212726.845000", "212728.845000", "212730.845000", "212732.845000", "212734.845000", "212736.845000", "212738.845000", "212740.845000", "212742.845000", "212744.845000", "212746.845000", "212748.845000", "212750.845000", "212752.845000", "212754.845000", "212756.845000", "212758.845000", "212800.845000", "212802.845000", "212804.845000", "212806.845000", "212808.845000", "212810.845000", "212812.845000", "212814.845000", "212816.845000", "212818.845000", "212820.845000", "212822.845000", "212824.845000", "212826.845000", "212828.845000", "212830.845000", "212832.845000", "212834.845000", "212836.845000", "212838.845000", "212840.845000", "212842.845000", "212844.845000", "212846.845000", "212848.845000", "212850.845000", "212852.845000", "212854.845000", "212856.845000", "212858.845000", "212900.845000", "212902.845000", "212904.845000", "212906.845000", "212908.845000", "212910.845000", "212912.845000", "212914.845000", "212916.845000", "212918.845000", "212920.845000", "212922.845000", "212924.845000", "212926.845000", "212928.845000", "212930.845000", "212932.845000", "212934.845000", "212936.845000", "212938.845000", "212940.845000", "212942.845000", "212944.845000", "212946.845000", "212948.845000", "212950.845000", "212952.845000", "212954.845000", "212956.845000", "212958.845000", "213000.845000", "213002.845000", "213004.845000", "213006.845000", "213008.845000", "213010.845000", "213012.845000", "213014.845000", "213016.845000", "213018.845000", "213020.845000", "213022.845000", "213024.845000", "213026.845000", "213028.845000", "213030.845000", "213032.845000", "213034.845000", "213036.845000", "213038.845000", "213040.845000", "213042.845000", "213044.845000", "213046.845000", "213048.845000", "213050.845000", "213052.845000", "213054.845000", "213056.845000", "213058.845000", "213100.845000", "213102.845000", "213104.845000", "213106.845000", "213108.845000", "213110.845000", "213112.845000", "213114.845000", "213116.845000", "213118.845000", "213120.845000", "213122.845000", "213124.845000", "213126.845000", "213128.845000", "213130.845000", "213132.845000", "213134.845000", "213136.845000", "213138.845000", "213140.845000", "213142.845000", "213144.845000", "213146.845000", "213148.845000", "213150.845000", "213152.845000", "213154.845000", "213156.845000", "213158.845000", "213200.845000", "213202.845000", "213204.845000", "213206.845000", "213208.845000", "213210.845000", "213212.845000", "213214.845000", "213216.845000", "213218.845000", "213220.845000", "213222.845000", "213224.845000", "213226.845000", "213228.845000", "213230.845000", "213232.845000", "213234.845000", "213236.845000", "213238.845000", "213240.845000", "213242.845000", "213244.845000", "213246.845000", "213248.845000", "213250.845000", "213252.845000", "213254.845000", "213256.845000", "213258.845000", "213300.845000", "213302.845000", "213304.845000", "213306.845000", "213308.845000", "213310.845000", "213312.845000", "213314.845000", "213316.845000", "213318.845000", "213320.845000", "213322.845000", "213324.845000", "213326.845000", "213328.845000", "213330.845000", "213332.845000", "213334.845000", "213336.845000", "213338.845000", "213340.845000", "213342.845000", "213344.845000", "213346.845000", "213348.845000", "213350.845000", "213352.845000", "213354.845000", "213356.845000", "213358.845000", "213400.845000", "213402.845000", "213404.845000", "213406.845000", "213408.845000", "213410.845000", "213412.845000", "213414.845000", "213416.845000", "213418.845000", "213420.845000", "213422.845000", "213424.845000", "213426.845000", "213428.845000", "213430.845000", "213432.845000", "213434.845000", "213436.845000", "213438.845000", "213440.845000", "213442.845000", "213444.845000", "213446.845000", "213448.845000", "213450.845000", "213452.845000", "213454.845000", "213456.845000", "213458.845000", "213500.845000", "213502.845000", "213504.845000", "213506.845000", "213508.845000", "213510.845000", "213512.845000", "213514.845000", "213516.845000", "213518.845000", "213520.845000", "213522.845000", "213524.845000", "213526.845000", "213528.845000", "213530.845000", "213532.845000", "213534.845000", "213536.845000", "213538.845000", "213540.845000", "213542.845000", "213544.845000", "213546.845000", "213548.845000", "213550.845000", "213552.845000", "213554.845000", "213556.845000", "213558.845000", "213600.845000", "213602.845000", "213604.845000", "213606.845000", "213608.845000", "213610.845000", "213612.845000", "213614.845000", "213616.845000", "213618.845000", "213620.845000", "213622.845000", "213624.845000", "213626.845000", "213628.845000", "213630.845000", "213632.845000", "213634.845000", "213636.845000", "213638.845000", "213640.845000", "213642.845000", "213644.845000", "213646.845000", "213648.845000", "213650.845000", "213652.845000", "213654.845000", "213656.845000", "213658.845000", "213700.845000", "213702.845000", "213704.845000", "213706.845000", "213708.845000", "213710.845000", "213712.845000", "213714.845000", "213716.845000", "213718.845000", "213720.845000", "213722.845000", "213724.845000", "213726.845000", "213728.845000", "213730.845000", "213732.845000", "213734.845000", "213736.845000", "213738.845000", "213740.845000", "213742.845000", "213744.845000", "213746.845000", "213748.845000", "213750.845000", "213752.845000", "213754.845000", "213756.845000", "213758.845000", "213800.845000", "213802.845000", "213804.845000", "213806.845000", "213808.845000", "213810.845000", "213812.845000", "213814.845000", "213816.845000", "213818.845000", "213820.845000", "213822.845000", "213824.845000", "213826.845000", "213828.845000", "213830.845000", "213832.845000", "213834.845000", "213836.845000", "213838.845000", "213840.845000", "213842.845000", "213844.845000", "213846.845000", "213848.845000", "213850.845000", "213852.845000", "213854.845000", "213856.845000", "213858.845000", "213900.845000", "213902.845000", "213904.845000", "213906.845000", "213908.845000", "213910.845000", "213912.845000", "213914.845000", "213916.845000", "213918.845000", "213920.845000", "213922.845000", "213924.845000", "213926.845000", "213928.845000", "213930.845000", "213932.845000", "213934.845000", "213936.845000", "213938.845000", "213940.845000", "213942.845000", "213944.845000", "213946.845000", "213948.845000", "213950.845000", "213952.845000", "213954.845000", "213956.845000", "213958.845000", "214000.845000", "214002.845000", "214004.845000", "214006.845000", "214008.845000", "214010.845000", "214012.845000", "214014.845000", "214016.845000", "214018.845000", "214020.845000", "214022.845000", "214024.845000", "214026.845000", "214028.845000", "214030.845000", "214032.845000", "214034.845000", "214036.845000", "214038.845000", "214040.845000", "214042.845000", "214044.845000", "214046.845000", "214048.845000", "214050.845000", "214052.845000", "214054.845000", "214056.845000", "214058.845000", "214100.845000", "214102.845000", "214104.845000", "214106.845000", "214108.845000", "214110.845000", "214112.845000", "214114.845000", "214116.845000", "214118.845000", "214120.845000", "214122.845000", "214124.845000", "214126.845000", "214128.845000", "214130.845000", "214132.845000", "214134.845000", "214136.845000", "214138.845000", "214140.845000", "214142.845000", "214144.845000", "214146.845000", "214148.845000", "214150.845000", "214152.845000", "214154.845000", "214156.845000", "214158.845000", "214200.845000", "214202.845000", "214204.845000", "214206.845000", "214208.845000", "214210.845000", "214212.845000", "214214.845000", "214216.845000", "214218.845000", "214220.845000", "214222.845000", "214224.845000", "214226.845000", "214228.845000", "214230.845000", "214232.845000", "214234.845000", "214236.845000", "214238.845000", "214240.845000", "214242.845000", "214244.845000", "214246.845000", "214248.845000", "214250.845000", "214252.845000", "214254.845000", "214256.845000", "214258.845000", "214300.845000", "214302.845000", "214304.845000", "214306.845000", "214308.845000", "214310.845000", "214312.845000", "214314.845000", "214316.845000", "214318.845000", "214320.845000", "214322.845000", "214324.845000", "214326.845000", "214328.845000", "214330.845000", "214332.845000", "214334.845000", "214336.845000", "214338.845000", "214340.845000", "214342.845000", "214344.845000", "214346.845000", "214348.845000", "214350.845000", "214352.845000", "214354.845000", "214356.845000", "214358.845000", "214400.845000", "214402.845000", "214404.845000", "214406.845000", "214408.845000", "214410.845000", "214412.845000", "214414.845000", "214416.845000", "214418.845000", "214420.845000", "214422.845000", "214424.845000", "214426.845000", "214428.845000", "214430.845000", "214432.845000", "214434.845000", "214436.845000", "214438.845000", "214440.845000", "214442.845000", "214444.845000", "214446.845000", "214448.845000", "214450.845000", "214452.845000", "214454.845000", "214456.845000", "214458.845000", "214500.845000", "214502.845000", "214504.845000", "214506.845000", "214508.845000", "214510.845000", "214512.845000", "214514.845000", "214516.845000", "214518.845000", "214520.845000", "214522.845000", "214524.845000", "214526.845000", "214528.845000", "214530.845000", "214532.845000", "214534.845000", "214536.845000", "214538.845000", "214540.845000", "214542.845000", "214544.845000", "214546.845000", "214548.845000", "214550.845000", "214552.845000", "214554.845000", "214556.845000", "214558.845000", "214600.845000", "214602.845000", "214604.845000", "214606.845000", "214608.845000", "214610.845000", "214612.845000", "214614.845000", "214616.845000", "214618.845000", "214620.845000", "214622.845000", "214624.845000", "214626.845000", "214628.845000", "214630.845000", "214632.845000", "214634.845000", "214636.845000", "214638.845000", "214640.845000", "214642.845000", "214644.845000", "214646.845000", "214648.845000", "214650.845000", "214652.845000", "214654.845000", "214656.845000", "214658.845000", "214700.845000", "214702.845000", "214704.845000", "214706.845000", "214708.845000", "214710.845000", "214712.845000", "214714.845000", "214716.845000", "214718.845000", "214720.845000", "214722.845000", "214724.845000", "214726.845000", "214728.845000", "214730.845000", "214732.845000", "214734.845000", "214736.845000", "214738.845000", "214740.845000", "214742.845000", "214744.845000", "214746.845000", "214748.845000", "214750.845000", "214752.845000", "214754.845000", "214756.845000", "214758.845000", "214800.845000", "214802.845000", "214804.845000", "214806.845000", "214808.845000", "214810.845000", "214812.845000", "214814.845000", "214816.845000", "214818.845000", "214820.845000", "214822.845000", "214824.845000", "214826.845000", "214828.845000", "214830.845000", "214832.845000", "214834.845000", "214836.845000", "214838.845000", "214840.845000", "214842.845000", "214844.845000", "214846.845000", "214848.845000", "214850.845000", "214852.845000", "214854.845000", "214856.845000", "214858.845000", "214900.845000", "214902.845000", "214904.845000", "214906.845000", "214908.845000", "214910.845000", "214912.845000", "214914.845000", "214916.845000", "214918.845000", "214920.845000", "214922.845000", "214924.845000", "214926.845000", "214928.845000", "214930.845000", "214932.845000", "214934.845000", "214936.845000", "214938.845000", "214940.845000", "214942.845000", "214944.845000", "214946.845000", "214948.845000", "214950.845000", "214952.845000", "214954.845000", "214956.845000", "214958.845000", "215000.845000", "215002.845000", "215004.845000", "215006.845000", "215008.845000", "215010.845000", "215012.845000", "215014.845000", "215016.845000", "215018.845000", "215020.845000", "215022.845000", "215024.845000", "215026.845000", "215028.845000", "215030.845000", "215032.845000", "215034.845000", "215036.845000", "215038.845000", "215040.845000", "215042.845000", "215044.845000", "215046.845000", "215048.845000", "215050.845000", "215052.845000", "215054.845000", "215056.845000", "215058.845000", "215100.845000", "215102.845000", "215104.845000", "215106.845000", "215108.845000", "215110.845000", "215112.845000", "215114.845000", "215116.845000", "215118.845000", "215120.845000", "215122.845000", "215124.845000", "215126.845000", "215128.845000", "215130.845000", "215132.845000", "215134.845000", "215136.845000", "215138.845000", "215140.845000", "215142.845000", "215144.845000", "215146.845000", "215148.845000", "215150.845000", "215152.845000", "215154.845000", "215156.845000", "215158.845000", "215200.845000", "215202.845000", "215204.845000", "215206.845000", "215208.845000", "215210.845000", "215212.845000", "215214.845000", "215216.845000", "215218.845000", "215220.845000", "215222.845000", "215224.845000", "215226.845000", "215228.845000", "215230.845000", "215232.845000", "215234.845000", "215236.845000", "215238.845000", "215240.845000", "215242.845000", "215244.845000", "215246.845000", "215248.845000", "215250.845000", "215252.845000", "215254.845000", "215256.845000", "215258.845000", "215300.845000", "215302.845000", "215304.845000", "215306.845000", "215308.845000", "215310.845000", "215312.845000", "215314.845000", "215316.845000", "215318.845000", "215320.845000", "215322.845000", "215324.845000", "215326.845000", "215328.845000", "215330.845000", "215332.845000", "215334.845000", "215336.845000", "215338.845000", "215340.845000", "215342.845000", "215344.845000", "215346.845000", "215348.845000", "215350.845000", "215352.845000", "215354.845000", "215356.845000", "215358.845000", "215400.845000", "215402.845000", "215404.845000", "215406.845000", "215408.845000", "215410.845000", "215412.845000", "215414.845000", "215416.845000", "215418.845000", "215420.845000", "215422.845000", "215424.845000", "215426.845000", "215428.845000", "215430.845000", "215432.845000", "215434.845000", "215436.845000", "215438.845000", "215440.845000", "215442.845000", "215444.845000", "215446.845000", "215448.845000", "215450.845000", "215452.845000", "215454.845000", "215456.845000", "215458.845000", "215500.845000", "215502.845000", "215504.845000", "215506.845000", "215508.845000", "215510.845000", "215512.845000", "215514.845000", "215516.845000", "215518.845000", "215520.845000", "215522.845000", "215524.845000", "215526.845000", "215528.845000", "215530.845000", "215532.845000", "215534.845000", "215536.845000", "215538.845000", "215540.845000", "215542.845000", "215544.845000", "215546.845000", "215548.845000", "215550.845000", "215552.845000", "215554.845000", "215556.845000", "215558.845000", "215600.845000", "215602.845000", "215604.845000", "215606.845000", "215608.845000", "215610.845000", "215612.845000", "215614.845000", "215616.845000", "215618.845000", "215620.845000", "215622.845000", "215624.845000", "215626.845000", "215628.845000", "215630.845000", "215632.845000", "215634.845000", "215636.845000", "215638.845000", "215640.845000", "215642.845000", "215644.845000", "215646.845000", "215648.845000", "215650.845000", "215652.845000", "215654.845000", "215656.845000", "215658.845000", "215700.845000", "215702.845000", "215704.845000", "215706.845000", "215708.845000", "215710.845000", "215712.845000", "215714.845000", "215716.845000", "215718.845000", "215720.845000", "215722.845000", "215724.845000", "215726.845000", "215728.845000", "215730.845000", "215732.845000", "215734.845000", "215736.845000", "215738.845000", "215740.845000", "215742.845000", "215744.845000", "215746.845000", "215748.845000", "215750.845000", "215752.845000", "215754.845000", "215756.845000", "215758.845000", "215800.845000", "215802.845000", "215804.845000", "215806.845000", "215808.845000", "215810.845000", "215812.845000", "215814.845000", "215816.845000", "215818.845000", "215820.845000", "215822.845000", "215824.845000", "215826.845000", "215828.845000", "215830.845000", "215832.845000", "215834.845000", "215836.845000", "215838.845000", "215840.845000", "215842.845000", "215844.845000", "215846.845000", "215848.845000", "215850.845000", "215852.845000", "215854.845000", "215856.845000", "215858.845000", "215900.845000", "215902.845000", "215904.845000", "215906.845000", "215908.845000", "215910.845000", "215912.845000", "215914.845000", "215916.845000", "215918.845000", "215920.845000", "215922.845000", "215924.845000", "215926.845000", "21