{
  "AcquisitionMatrixPE": 80,
  "AcquisitionNumber": 1,
  "AcquisitionTime": "18:24:2.560000",
  "BandwidthPerPixelPhaseEncode": 51.02,
  "BaseResolution": 80,
  "BodyPartExamined": "BRAIN",
  "ConsistencyInfo": "N4_VE11C_LATEST_20160120",
  "ConversionSoftware": "dcm2niix",
  "ConversionSoftwareVersion": "v1.0.20170923 (OpenJPEG build) GCC6.3.0",
  "DerivedVendorReportedEchoSpacing": 0.000490004,
  "DeviceSerialNumber": "66112",
  "DwellTime": 2.2e-06,
  "EchoTime": 0.025,
  "EchoTrainLength": 39,
  "EffectiveEchoSpacing": 0.000245002,
  "FlipAngle": 75,
  "ImageType": [
    "ORIGINAL",
    "PRIMARY",
    "FMRI",
    "NONE",
    "ND",
    "NORM",
    "MOSAIC"
],
  "InstitutionAddress": "Maynard_3_Hanover_NH_US_03755",
  "InstitutionName": "Dartmouth_College_-_PBS",
  "MagneticFieldStrength": 3,
  "Manufacturer": "Siemens",
  "ManufacturersModelName": "Prisma",
  "Modality": "MR",
  "ParallelReductionFactorInPlane": 2,
  "PartialFourier": 1,
  "PercentPhaseFOV": 100,
  "PhaseEncodingDirection": "j-",
  "PhaseEncodingSteps": 79,
  "PhaseResolution": 1,
  "ProcedureStepDescription": "Chang_Chang_1039_fnlpilot",
  "ProtocolName": "func_run-01_task-movie",
  "PulseSequenceDetails": "%SiemensSeq%_ep2d_bold",
  "ReceiveCoilActiveElements": "HEA;HEP",
  "ReceiveCoilName": "Head_32",
  "ReconMatrixPE": 80,
  "RepetitionTime": 2,
  "ScanOptions": "FS",
  "ScanningSequence": "EP",
  "SequenceName": "_epfid2d1_80",
  "SequenceVariant": "SK",
  "SeriesDescription": "func_run-01_task-movie",
  "SliceTiming": [0.99, 0, 1.04, 0.05, 1.09, 0.1, 1.14, 0.15, 1.1875, 0.2, 1.2375, 0.2475, 1.2875, 0.2975, 1.3375, 0.3475, 1.3875, 0.3975, 1.435, 0.445, 1.485, 0.495, 1.535, 0.545, 1.585, 0.595, 1.635, 0.645, 1.6825, 0.6925, 1.7325, 0.7425, 1.7825, 0.7925, 1.8325, 0.8425, 1.8825, 0.8925, 1.93, 0.94],
  "SoftwareVersions": "syngo_MR_E11",
  "StationName": "AWP66112",
  "TaskName": "movie",
  "TotalReadoutTime": 0.0193552,
  "dcmmeta_affine": [
    [-2.996317148208618, -0.14811687171459198, 0.012044253759086132, 125.66710662841797],
    [-0.14575286209583282, 2.9765408039093018, 0.34490659832954407, -104.98318481445312],
    [0.028978900983929634, -0.3438979983329773, 2.9800829887390137, -31.819787979125977],
    [0.0, 0.0, 0.0, 1.0]
],
  "dcmmeta_reorient_transform": [
    [0.0, -1.0, 0.0, 79.0],
    [1.0, 0.0, 0.0, 0.0],
    [0.0, 0.0, 1.0, 0.0],
    [0.0, 0.0, 0.0, 1.0]
],
  "dcmmeta_shape": [80, 80, 40, 1369],
  "dcmmeta_slice_dim": 2,
  "dcmmeta_version": 0.6,
  "global": {
    "const": {
      "AccessionNumber": "A001105",
      "AcquisitionMatrix": [80, 0, 0, 80],
      "AngioFlag": "N",
      "BitsAllocated": 16,
      "BitsStored": 12,
      "BodyPartExamined": "BRAIN",
      "Columns": 560,
      "EchoNumbers": 1,
      "EchoTime": 25.0,
      "EchoTrainLength": 39,
      "FlipAngle": 75.0,
      "HighBit": 11,
      "ImageOrientationPatient": [0.99877237571039, 0.04858428758405, 0.00965963341784, -0.0493722927313, 0.99218029003407, 0.1146326688966],
      "ImagePositionPatient": [-797.53393353442, -879.51403665735, -148.47818866825],
      "ImageType": [
        "ORIGINAL",
        "PRIMARY",
        "FMRI",
        "NONE",
        "ND",
        "NORM",
        "MOSAIC"
],
      "ImagedNucleus": "1H",
      "ImagingFrequency": 123.252288,
      "InPlanePhaseEncodingDirection": "COL",
      "MRAcquisitionType": "2D",
      "MagneticFieldStrength": 3.0,
      "Manufacturer": "SIEMENS",
      "ManufacturerModelName": "Prisma",
      "Modality": "MR",
      "NumberOfAverages": 1.0,
      "NumberOfPhaseEncodingSteps": 79,
      "PercentPhaseFieldOfView": 100.0,
      "PercentSampling": 100.0,
      "PerformedProcedureStepStartTime": "181139.561000",
      "PhotometricInterpretation": "MONOCHROME2",
      "PixelBandwidth": 2840.0,
      "PixelRepresentation": 0,
      "PixelSpacing": [3.0, 3.0],
      "PositionReferenceIndicator": "",
      "ProtocolName": "func_run-01_task-movie",
      "RepetitionTime": 2000.0,
      "Rows": 560,
      "SAR": 0.08971072835169,
      "SamplesPerPixel": 1,
      "ScanOptions": "FS",
      "ScanningSequence": "EP",
      "SequenceName": "*epfid2d1_80",
      "SequenceVariant": "SK",
      "SeriesDescription": "func_run-01_task-movie",
      "SeriesNumber": 6,
      "SeriesTime": "182403.843000",
      "SliceLocation": -43.173811748854,
      "SliceThickness": 3.0,
      "SmallestImagePixelValue": 0,
      "SoftwareVersions": "syngo MR E11",
      "SpacingBetweenSlices": 3.0000000274322,
      "SpecificCharacterSet": "ISO_IR 100",
      "StudyID": "1",
      "StudyTime": "181139.495000",
      "TransmitCoilName": "Body",
      "VariableFlipAngleFlag": "N",
      "WindowCenterWidthExplanation": "Algo1",
      "dBdt": 0.0},
    "slices": {}
  },
  "time": {
    "samples": {
      "AcquisitionNumber": [1, 2, 3, 4, 5, 6, 7, 8, 9, 10, 11, 12, 13, 14, 15, 16, 17, 18, 19, 20, 21, 22, 23, 24, 25, 26, 27, 28, 29, 30, 31, 32, 33, 34, 35, 36, 37, 38, 39, 40, 41, 42, 43, 44, 45, 46, 47, 48, 49, 50, 51, 52, 53, 54, 55, 56, 57, 58, 59, 60, 61, 62, 63, 64, 65, 66, 67, 68, 69, 70, 71, 72, 73, 74, 75, 76, 77, 78, 79, 80, 81, 82, 83, 84, 85, 86, 87, 88, 89, 90, 91, 92, 93, 94, 95, 96, 97, 98, 99, 100, 101, 102, 103, 104, 105, 106, 107, 108, 109, 110, 111, 112, 113, 114, 115, 116, 117, 118, 119, 120, 121, 122, 123, 124, 125, 126, 127, 128, 129, 130, 131, 132, 133, 134, 135, 136, 137, 138, 139, 140, 141, 142, 143, 144, 145, 146, 147, 148, 149, 150, 151, 152, 153, 154, 155, 156, 157, 158, 159, 160, 161, 162, 163, 164, 165, 166, 167, 168, 169, 170, 171, 172, 173, 174, 175, 176, 177, 178, 179, 180, 181, 182, 183, 184, 185, 186, 187, 188, 189, 190, 191, 192, 193, 194, 195, 196, 197, 198, 199, 200, 201, 202, 203, 204, 205, 206, 207, 208, 209, 210, 211, 212, 213, 214, 215, 216, 217, 218, 219, 220, 221, 222, 223, 224, 225, 226, 227, 228, 229, 230, 231, 232, 233, 234, 235, 236, 237, 238, 239, 240, 241, 242, 243, 244, 245, 246, 247, 248, 249, 250, 251, 252, 253, 254, 255, 256, 257, 258, 259, 260, 261, 262, 263, 264, 265, 266, 267, 268, 269, 270, 271, 272, 273, 274, 275, 276, 277, 278, 279, 280, 281, 282, 283, 284, 285, 286, 287, 288, 289, 290, 291, 292, 293, 294, 295, 296, 297, 298, 299, 300, 301, 302, 303, 304, 305, 306, 307, 308, 309, 310, 311, 312, 313, 314, 315, 316, 317, 318, 319, 320, 321, 322, 323, 324, 325, 326, 327, 328, 329, 330, 331, 332, 333, 334, 335, 336, 337, 338, 339, 340, 341, 342, 343, 344, 345, 346, 347, 348, 349, 350, 351, 352, 353, 354, 355, 356, 357, 358, 359, 360, 361, 362, 363, 364, 365, 366, 367, 368, 369, 370, 371, 372, 373, 374, 375, 376, 377, 378, 379, 380, 381, 382, 383, 384, 385, 386, 387, 388, 389, 390, 391, 392, 393, 394, 395, 396, 397, 398, 399, 400, 401, 402, 403, 404, 405, 406, 407, 408, 409, 410, 411, 412, 413, 414, 415, 416, 417, 418, 419, 420, 421, 422, 423, 424, 425, 426, 427, 428, 429, 430, 431, 432, 433, 434, 435, 436, 437, 438, 439, 440, 441, 442, 443, 444, 445, 446, 447, 448, 449, 450, 451, 452, 453, 454, 455, 456, 457, 458, 459, 460, 461, 462, 463, 464, 465, 466, 467, 468, 469, 470, 471, 472, 473, 474, 475, 476, 477, 478, 479, 480, 481, 482, 483, 484, 485, 486, 487, 488, 489, 490, 491, 492, 493, 494, 495, 496, 497, 498, 499, 500, 501, 502, 503, 504, 505, 506, 507, 508, 509, 510, 511, 512, 513, 514, 515, 516, 517, 518, 519, 520, 521, 522, 523, 524, 525, 526, 527, 528, 529, 530, 531, 532, 533, 534, 535, 536, 537, 538, 539, 540, 541, 542, 543, 544, 545, 546, 547, 548, 549, 550, 551, 552, 553, 554, 555, 556, 557, 558, 559, 560, 561, 562, 563, 564, 565, 566, 567, 568, 569, 570, 571, 572, 573, 574, 575, 576, 577, 578, 579, 580, 581, 582, 583, 584, 585, 586, 587, 588, 589, 590, 591, 592, 593, 594, 595, 596, 597, 598, 599, 600, 601, 602, 603, 604, 605, 606, 607, 608, 609, 610, 611, 612, 613, 614, 615, 616, 617, 618, 619, 620, 621, 622, 623, 624, 625, 626, 627, 628, 629, 630, 631, 632, 633, 634, 635, 636, 637, 638, 639, 640, 641, 642, 643, 644, 645, 646, 647, 648, 649, 650, 651, 652, 653, 654, 655, 656, 657, 658, 659, 660, 661, 662, 663, 664, 665, 666, 667, 668, 669, 670, 671, 672, 673, 674, 675, 676, 677, 678, 679, 680, 681, 682, 683, 684, 685, 686, 687, 688, 689, 690, 691, 692, 693, 694, 695, 696, 697, 698, 699, 700, 701, 702, 703, 704, 705, 706, 707, 708, 709, 710, 711, 712, 713, 714, 715, 716, 717, 718, 719, 720, 721, 722, 723, 724, 725, 726, 727, 728, 729, 730, 731, 732, 733, 734, 735, 736, 737, 738, 739, 740, 741, 742, 743, 744, 745, 746, 747, 748, 749, 750, 751, 752, 753, 754, 755, 756, 757, 758, 759, 760, 761, 762, 763, 764, 765, 766, 767, 768, 769, 770, 771, 772, 773, 774, 775, 776, 777, 778, 779, 780, 781, 782, 783, 784, 785, 786, 787, 788, 789, 790, 791, 792, 793, 794, 795, 796, 797, 798, 799, 800, 801, 802, 803, 804, 805, 806, 807, 808, 809, 810, 811, 812, 813, 814, 815, 816, 817, 818, 819, 820, 821, 822, 823, 824, 825, 826, 827, 828, 829, 830, 831, 832, 833, 834, 835, 836, 837, 838, 839, 840, 841, 842, 843, 844, 845, 846, 847, 848, 849, 850, 851, 852, 853, 854, 855, 856, 857, 858, 859, 860, 861, 862, 863, 864, 865, 866, 867, 868, 869, 870, 871, 872, 873, 874, 875, 876, 877, 878, 879, 880, 881, 882, 883, 884, 885, 886, 887, 888, 889, 890, 891, 892, 893, 894, 895, 896, 897, 898, 899, 900, 901, 902, 903, 904, 905, 906, 907, 908, 909, 910, 911, 912, 913, 914, 915, 916, 917, 918, 919, 920, 921, 922, 923, 924, 925, 926, 927, 928, 929, 930, 931, 932, 933, 934, 935, 936, 937, 938, 939, 940, 941, 942, 943, 944, 945, 946, 947, 948, 949, 950, 951, 952, 953, 954, 955, 956, 957, 958, 959, 960, 961, 962, 963, 964, 965, 966, 967, 968, 969, 970, 971, 972, 973, 974, 975, 976, 977, 978, 979, 980, 981, 982, 983, 984, 985, 986, 987, 988, 989, 990, 991, 992, 993, 994, 995, 996, 997, 998, 999, 1000, 1001, 1002, 1003, 1004, 1005, 1006, 1007, 1008, 1009, 1010, 1011, 1012, 1013, 1014, 1015, 1016, 1017, 1018, 1019, 1020, 1021, 1022, 1023, 1024, 1025, 1026, 1027, 1028, 1029, 1030, 1031, 1032, 1033, 1034, 1035, 1036, 1037, 1038, 1039, 1040, 1041, 1042, 1043, 1044, 1045, 1046, 1047, 1048, 1049, 1050, 1051, 1052, 1053, 1054, 1055, 1056, 1057, 1058, 1059, 1060, 1061, 1062, 1063, 1064, 1065, 1066, 1067, 1068, 1069, 1070, 1071, 1072, 1073, 1074, 1075, 1076, 1077, 1078, 1079, 1080, 1081, 1082, 1083, 1084, 1085, 1086, 1087, 1088, 1089, 1090, 1091, 1092, 1093, 1094, 1095, 1096, 1097, 1098, 1099, 1100, 1101, 1102, 1103, 1104, 1105, 1106, 1107, 1108, 1109, 1110, 1111, 1112, 1113, 1114, 1115, 1116, 1117, 1118, 1119, 1120, 1121, 1122, 1123, 1124, 1125, 1126, 1127, 1128, 1129, 1130, 1131, 1132, 1133, 1134, 1135, 1136, 1137, 1138, 1139, 1140, 1141, 1142, 1143, 1144, 1145, 1146, 1147, 1148, 1149, 1150, 1151, 1152, 1153, 1154, 1155, 1156, 1157, 1158, 1159, 1160, 1161, 1162, 1163, 1164, 1165, 1166, 1167, 1168, 1169, 1170, 1171, 1172, 1173, 1174, 1175, 1176, 1177, 1178, 1179, 1180, 1181, 1182, 1183, 1184, 1185, 1186, 1187, 1188, 1189, 1190, 1191, 1192, 1193, 1194, 1195, 1196, 1197, 1198, 1199, 1200, 1201, 1202, 1203, 1204, 1205, 1206, 1207, 1208, 1209, 1210, 1211, 1212, 1213, 1214, 1215, 1216, 1217, 1218, 1219, 1220, 1221, 1222, 1223, 1224, 1225, 1226, 1227, 1228, 1229, 1230, 1231, 1232, 1233, 1234, 1235, 1236, 1237, 1238, 1239, 1240, 1241, 1242, 1243, 1244, 1245, 1246, 1247, 1248, 1249, 1250, 1251, 1252, 1253, 1254, 1255, 1256, 1257, 1258, 1259, 1260, 1261, 1262, 1263, 1264, 1265, 1266, 1267, 1268, 1269, 1270, 1271, 1272, 1273, 1274, 1275, 1276, 1277, 1278, 1279, 1280, 1281, 1282, 1283, 1284, 1285, 1286, 1287, 1288, 1289, 1290, 1291, 1292, 1293, 1294, 1295, 1296, 1297, 1298, 1299, 1300, 1301, 1302, 1303, 1304, 1305, 1306, 1307, 1308, 1309, 1310, 1311, 1312, 1313, 1314, 1315, 1316, 1317, 1318, 1319, 1320, 1321, 1322, 1323, 1324, 1325, 1326, 1327, 1328, 1329, 1330, 1331, 1332, 1333, 1334, 1335, 1336, 1337, 1338, 1339, 1340, 1341, 1342, 1343, 1344, 1345, 1346, 1347, 1348, 1349, 1350, 1351, 1352, 1353, 1354, 1355, 1356, 1357, 1358, 1359, 1360, 1361, 1362, 1363, 1364, 1365, 1366, 1367, 1368, 1369],
      "AcquisitionTime": ["182402.560000", "182404.560000", "182406.560000", "182408.560000", "182410.560000", "182412.560000", "182414.560000", "182416.560000", "182418.560000", "182420.560000", "182422.560000", "182424.560000", "182426.560000", "182428.560000", "182430.560000", "182432.560000", "182434.560000", "182436.560000", "182438.560000", "182440.560000", "182442.560000", "182444.560000", "182446.560000", "182448.560000", "182450.560000", "182452.560000", "182454.560000", "182456.560000", "182458.560000", "182500.560000", "182502.560000", "182504.560000", "182506.560000", "182508.560000", "182510.560000", "182512.560000", "182514.560000", "182516.560000", "182518.560000", "182520.560000", "182522.560000", "182524.560000", "182526.560000", "182528.560000", "182530.560000", "182532.560000", "182534.560000", "182536.560000", "182538.560000", "182540.560000", "182542.560000", "182544.560000", "182546.560000", "182548.560000", "182550.560000", "182552.560000", "182554.560000", "182556.560000", "182558.560000", "182600.560000", "182602.560000", "182604.560000", "182606.560000", "182608.560000", "182610.560000", "182612.560000", "182614.560000", "182616.560000", "182618.560000", "182620.560000", "182622.560000", "182624.560000", "182626.560000", "182628.560000", "182630.560000", "182632.560000", "182634.560000", "182636.560000", "182638.560000", "182640.560000", "182642.560000", "182644.560000", "182646.560000", "182648.560000", "182650.560000", "182652.560000", "182654.560000", "182656.560000", "182658.560000", "182700.560000", "182702.560000", "182704.560000", "182706.560000", "182708.560000", "182710.560000", "182712.560000", "182714.560000", "182716.560000", "182718.560000", "182720.560000", "182722.560000", "182724.560000", "182726.560000", "182728.560000", "182730.560000", "182732.560000", "182734.560000", "182736.560000", "182738.560000", "182740.560000", "182742.560000", "182744.560000", "182746.560000", "182748.560000", "182750.560000", "182752.560000", "182754.560000", "182756.560000", "182758.560000", "182800.560000", "182802.560000", "182804.560000", "182806.560000", "182808.560000", "182810.560000", "182812.560000", "182814.560000", "182816.560000", "182818.560000", "182820.560000", "182822.560000", "182824.560000", "182826.560000", "182828.560000", "182830.560000", "182832.560000", "182834.560000", "182836.560000", "182838.560000", "182840.560000", "182842.560000", "182844.560000", "182846.560000", "182848.560000", "182850.560000", "182852.560000", "182854.560000", "182856.560000", "182858.560000", "182900.560000", "182902.560000", "182904.560000", "182906.560000", "182908.560000", "182910.560000", "182912.560000", "182914.560000", "182916.560000", "182918.560000", "182920.560000", "182922.560000", "182924.560000", "182926.560000", "182928.560000", "182930.560000", "182932.560000", "182934.560000", "182936.560000", "182938.560000", "182940.560000", "182942.560000", "182944.560000", "182946.560000", "182948.560000", "182950.560000", "182952.560000", "182954.560000", "182956.560000", "182958.560000", "183000.560000", "183002.560000", "183004.560000", "183006.560000", "183008.560000", "183010.560000", "183012.560000", "183014.560000", "183016.560000", "183018.560000", "183020.560000", "183022.560000", "183024.560000", "183026.560000", "183028.560000", "183030.560000", "183032.560000", "183034.560000", "183036.560000", "183038.560000", "183040.560000", "183042.560000", "183044.560000", "183046.560000", "183048.560000", "183050.560000", "183052.560000", "183054.560000", "183056.560000", "183058.560000", "183100.560000", "183102.560000", "183104.560000", "183106.560000", "183108.560000", "183110.560000", "183112.560000", "183114.560000", "183116.560000", "183118.560000", "183120.560000", "183122.560000", "183124.560000", "183126.560000", "183128.560000", "183130.560000", "183132.560000", "183134.560000", "183136.560000", "183138.560000", "183140.560000", "183142.560000", "183144.560000", "183146.560000", "183148.560000", "183150.560000", "183152.560000", "183154.560000", "183156.560000", "183158.560000", "183200.560000", "183202.560000", "183204.560000", "183206.560000", "183208.560000", "183210.560000", "183212.560000", "183214.560000", "183216.560000", "183218.560000", "183220.560000", "183222.560000", "183224.560000", "183226.560000", "183228.560000", "183230.560000", "183232.560000", "183234.560000", "183236.560000", "183238.560000", "183240.560000", "183242.560000", "183244.560000", "183246.560000", "183248.560000", "183250.560000", "183252.560000", "183254.560000", "183256.560000", "183258.560000", "183300.560000", "183302.560000", "183304.560000", "183306.560000", "183308.560000", "183310.560000", "183312.560000", "183314.560000", "183316.560000", "183318.560000", "183320.560000", "183322.560000", "183324.560000", "183326.560000", "183328.560000", "183330.560000", "183332.560000", "183334.560000", "183336.560000", "183338.560000", "183340.560000", "183342.560000", "183344.560000", "183346.560000", "183348.560000", "183350.560000", "183352.560000", "183354.560000", "183356.560000", "183358.560000", "183400.560000", "183402.560000", "183404.560000", "183406.560000", "183408.560000", "183410.560000", "183412.560000", "183414.560000", "183416.560000", "183418.560000", "183420.560000", "183422.560000", "183424.560000", "183426.560000", "183428.560000", "183430.560000", "183432.560000", "183434.560000", "183436.560000", "183438.560000", "183440.560000", "183442.560000", "183444.560000", "183446.560000", "183448.560000", "183450.560000", "183452.560000", "183454.560000", "183456.560000", "183458.560000", "183500.560000", "183502.560000", "183504.560000", "183506.560000", "183508.560000", "183510.560000", "183512.560000", "183514.560000", "183516.560000", "183518.560000", "183520.560000", "183522.560000", "183524.560000", "183526.560000", "183528.560000", "183530.560000", "183532.560000", "183534.560000", "183536.560000", "183538.560000", "183540.560000", "183542.560000", "183544.560000", "183546.560000", "183548.560000", "183550.560000", "183552.560000", "183554.560000", "183556.560000", "183558.560000", "183600.560000", "183602.560000", "183604.560000", "183606.560000", "183608.560000", "183610.560000", "183612.560000", "183614.560000", "183616.560000", "183618.560000", "183620.560000", "183622.560000", "183624.560000", "183626.560000", "183628.560000", "183630.560000", "183632.560000", "183634.560000", "183636.560000", "183638.560000", "183640.560000", "183642.560000", "183644.560000", "183646.560000", "183648.560000", "183650.560000", "183652.560000", "183654.560000", "183656.560000", "183658.560000", "183700.560000", "183702.560000", "183704.560000", "183706.560000", "183708.560000", "183710.560000", "183712.560000", "183714.560000", "183716.560000", "183718.560000", "183720.560000", "183722.560000", "183724.560000", "183726.560000", "183728.560000", "183730.560000", "183732.560000", "183734.560000", "183736.560000", "183738.560000", "183740.560000", "183742.560000", "183744.560000", "183746.560000", "183748.560000", "183750.560000", "183752.560000", "183754.560000", "183756.560000", "183758.560000", "183800.560000", "183802.560000", "183804.560000", "183806.560000", "183808.560000", "183810.560000", "183812.560000", "183814.560000", "183816.560000", "183818.560000", "183820.560000", "183822.560000", "183824.560000", "183826.560000", "183828.560000", "183830.560000", "183832.560000", "183834.560000", "183836.560000", "183838.560000", "183840.560000", "183842.560000", "183844.560000", "183846.560000", "183848.560000", "183850.560000", "183852.560000", "183854.560000", "183856.560000", "183858.560000", "183900.560000", "183902.560000", "183904.560000", "183906.560000", "183908.560000", "183910.560000", "183912.560000", "183914.560000", "183916.560000", "183918.560000", "183920.560000", "183922.560000", "183924.560000", "183926.560000", "183928.560000", "183930.560000", "183932.560000", "183934.560000", "183936.560000", "183938.560000", "183940.560000", "183942.560000", "183944.560000", "183946.560000", "183948.560000", "183950.560000", "183952.560000", "183954.560000", "183956.560000", "183958.560000", "184000.560000", "184002.560000", "184004.560000", "184006.560000", "184008.560000", "184010.560000", "184012.560000", "184014.560000", "184016.560000", "184018.560000", "184020.560000", "184022.560000", "184024.560000", "184026.560000", "184028.560000", "184030.560000", "184032.560000", "184034.560000", "184036.560000", "184038.560000", "184040.560000", "184042.560000", "184044.560000", "184046.560000", "184048.560000", "184050.560000", "184052.560000", "184054.560000", "184056.560000", "184058.560000", "184100.560000", "184102.560000", "184104.560000", "184106.560000", "184108.560000", "184110.560000", "184112.560000", "184114.560000", "184116.560000", "184118.560000", "184120.560000", "184122.560000", "184124.560000", "184126.560000", "184128.560000", "184130.560000", "184132.560000", "184134.560000", "184136.560000", "184138.560000", "184140.560000", "184142.560000", "184144.560000", "184146.560000", "184148.560000", "184150.560000", "184152.560000", "184154.560000", "184156.560000", "184158.560000", "184200.560000", "184202.560000", "184204.560000", "184206.560000", "184208.560000", "184210.560000", "184212.560000", "184214.560000", "184216.560000", "184218.560000", "184220.560000", "184222.560000", "184224.560000", "184226.560000", "184228.560000", "184230.560000", "184232.560000", "184234.560000", "184236.560000", "184238.560000", "184240.560000", "184242.560000", "184244.560000", "184246.560000", "184248.560000", "184250.560000", "184252.560000", "184254.560000", "184256.560000", "184258.560000", "184300.560000", "184302.560000", "184304.560000", "184306.560000", "184308.560000", "184310.560000", "184312.560000", "184314.560000", "184316.560000", "184318.560000", "184320.560000", "184322.560000", "184324.560000", "184326.560000", "184328.560000", "184330.560000", "184332.560000", "184334.560000", "184336.560000", "184338.560000", "184340.560000", "184342.560000", "184344.560000", "184346.560000", "184348.560000", "184350.560000", "184352.560000", "184354.560000", "184356.560000", "184358.560000", "184400.560000", "184402.560000", "184404.560000", "184406.560000", "184408.560000", "184410.560000", "184412.560000", "184414.560000", "184416.560000", "184418.560000", "184420.560000", "184422.560000", "184424.560000", "184426.560000", "184428.560000", "184430.560000", "184432.560000", "184434.560000", "184436.560000", "184438.560000", "184440.560000", "184442.560000", "184444.560000", "184446.560000", "184448.560000", "184450.560000", "184452.560000", "184454.560000", "184456.560000", "184458.560000", "184500.560000", "184502.560000", "184504.560000", "184506.560000", "184508.560000", "184510.560000", "184512.560000", "184514.560000", "184516.560000", "184518.560000", "184520.560000", "184522.560000", "184524.560000", "184526.560000", "184528.560000", "184530.560000", "184532.560000", "184534.560000", "184536.560000", "184538.560000", "184540.560000", "184542.560000", "184544.560000", "184546.560000", "184548.560000", "184550.560000", "184552.560000", "184554.560000", "184556.560000", "184558.560000", "184600.560000", "184602.560000", "184604.560000", "184606.560000", "184608.560000", "184610.560000", "184612.560000", "184614.560000", "184616.560000", "184618.560000", "184620.560000", "184622.560000", "184624.560000", "184626.560000", "184628.560000", "184630.560000", "184632.560000", "184634.560000", "184636.560000", "184638.560000", "184640.560000", "184642.560000", "184644.560000", "184646.560000", "184648.560000", "184650.560000", "184652.560000", "184654.560000", "184656.560000", "184658.560000", "184700.560000", "184702.560000", "184704.560000", "184706.560000", "184708.560000", "184710.560000", "184712.560000", "184714.560000", "184716.560000", "184718.560000", "184720.560000", "184722.560000", "184724.560000", "184726.560000", "184728.560000", "184730.560000", "184732.560000", "184734.560000", "184736.560000", "184738.560000", "184740.560000", "184742.560000", "184744.560000", "184746.560000", "184748.560000", "184750.560000", "184752.560000", "184754.560000", "184756.560000", "184758.560000", "184800.560000", "184802.560000", "184804.560000", "184806.560000", "184808.560000", "184810.560000", "184812.560000", "184814.560000", "184816.560000", "184818.560000", "184820.560000", "184822.560000", "184824.560000", "184826.560000", "184828.560000", "184830.560000", "184832.560000", "184834.560000", "184836.560000", "184838.560000", "184840.560000", "184842.560000", "184844.560000", "184846.560000", "184848.560000", "184850.560000", "184852.560000", "184854.560000", "184856.560000", "184858.560000", "184900.560000", "184902.560000", "184904.560000", "184906.560000", "184908.560000", "184910.560000", "184912.560000", "184914.560000", "184916.560000", "184918.560000", "184920.560000", "184922.560000", "184924.560000", "184926.560000", "184928.560000", "184930.560000", "184932.560000", "184934.560000", "184936.560000", "184938.560000", "184940.560000", "184942.560000", "184944.560000", "184946.560000", "184948.560000", "184950.560000", "184952.560000", "184954.560000", "184956.560000", "184958.560000", "185000.560000", "185002.560000", "185004.560000", "185006.560000", "185008.560000", "185010.560000", "185012.560000", "185014.560000", "185016.560000", "185018.560000", "185020.560000", "185022.560000", "185024.560000", "185026.560000", "185028.560000", "185030.560000", "185032.560000", "185034.560000", "185036.560000", "185038.560000", "185040.560000", "185042.560000", "185044.560000", "185046.560000", "185048.560000", "185050.560000", "185052.560000", "185054.560000", "185056.560000", "185058.560000", "185100.560000", "185102.560000", "185104.560000", "185106.560000", "185108.560000", "185110.560000", "185112.560000", "185114.560000", "185116.560000", "185118.560000", "185120.560000", "185122.560000", "185124.560000", "185126.560000", "185128.560000", "185130.560000", "185132.560000", "185134.560000", "185136.560000", "185138.560000", "185140.560000", "185142.560000", "185144.560000", "185146.560000", "185148.560000", "185150.560000", "185152.560000", "185154.560000", "185156.560000", "185158.560000", "185200.560000", "185202.560000", "185204.560000", "185206.560000", "185208.560000", "185210.560000", "185212.560000", "185214.560000", "185216.560000", "185218.560000", "185220.560000", "185222.560000", "185224.560000", "185226.560000", "185228.560000", "185230.560000", "185232.560000", "185234.560000", "185236.560000", "185238.560000", "185240.560000", "185242.560000", "185244.560000", "185246.560000", "185248.560000", "185250.560000", "185252.560000", "185254.560000", "185256.560000", "185258.560000", "185300.560000", "185302.560000", "185304.560000", "185306.560000", "185308.560000", "185310.560000", "185312.560000", "185314.560000", "185316.560000", "185318.560000", "185320.560000", "185322.560000", "185324.560000", "185326.560000", "185328.560000", "185330.560000", "185332.560000", "185334.560000", "185336.560000", "185338.560000", "185340.560000", "185342.560000", "185344.560000", "185346.560000", "185348.560000", "185350.560000", "185352.560000", "185354.560000", "185356.560000", "185358.560000", "185400.560000", "185402.560000", "185404.560000", "185406.560000", "185408.560000", "185410.560000", "185412.560000", "185414.560000", "185416.560000", "185418.560000", "185420.560000", "185422.560000", "185424.560000", "185426.560000", "185428.560000", "185430.560000", "185432.560000", "185434.560000", "185436.560000", "185438.560000", "185440.560000", "185442.560000", "185444.560000", "185446.560000", "185448.560000", "185450.560000", "185452.560000", "185454.560000", "185456.560000", "185458.560000", "185500.560000", "185502.560000", "185504.560000", "185506.560000", "185508.560000", "185510.560000", "185512.560000", "185514.560000", "185516.560000", "185518.560000", "185520.560000", "185522.560000", "185524.560000", "185526.560000", "185528.560000", "185530.560000", "185532.560000", "185534.560000", "185536.560000", "185538.560000", "185540.560000", "185542.560000", "185544.560000", "185546.560000", "185548.560000", "185550.560000", "185552.560000", "185554.560000", "185556.560000", "185558.560000", "185600.560000", "185602.560000", "185604.560000", "185606.560000", "185608.560000", "185610.560000", "185612.560000", "185614.560000", "185616.560000", "185618.560000", "185620.560000", "185622.560000", "185624.560000", "185626.560000", "185628.560000", "185630.560000", "185632.560000", "185634.560000", "185636.560000", "185638.560000", "185640.560000", "185642.560000", "185644.560000", "185646.560000", "185648.560000", "185650.560000", "185652.560000", "185654.560000", "185656.560000", "185658.560000", "185700.560000", "185702.560000", "185704.560000", "185706.560000", "185708.560000", "185710.560000", "185712.560000", "185714.560000", "185716.560000", "185718.560000", "185720.560000", "185722.560000", "185724.560000", "185726.560000", "185728.560000", "185730.560000", "185732.560000", "185734.560000", "185736.560000", "185738.560000", "185740.560000", "185742.560000", "185744.560000", "185746.560000", "185748.560000", "185750.560000", "185752.560000", "185754.560000", "185756.560000", "185758.560000", "185800.560000", "185802.560000", "185804.560000", "185806.560000", "185808.560000", "185810.560000", "185812.560000", "185814.560000", "185816.560000", "185818.560000", "185820.560000", "185822.560000", "185824.560000", "185826.560000", "185828.560000", "185830.560000", "185832.560000", "185834.560000", "185836.560000", "185838.560000", "185840.560000", "185842.560000", "185844.560000", "185846.560000", "185848.560000", "185850.560000", "185852.560000", "185854.560000", "185856.560000", "185858.560000", "185900.560000", "185902.560000", "185904.560000", "185906.560000", "185908.560000", "185910.560000", "185912.560000", "185914.560000", "185916.560000", "185918.560000", "185920.560000", "185922.560000", "185924.560000", "185926.56000