{
  "AcquisitionMatrixPE": 80,
  "AcquisitionNumber": 1,
  "AcquisitionTime": "20:28:49.597500",
  "BandwidthPerPixelPhaseEncode": 51.02,
  "BaseResolution": 80,
  "BodyPartExamined": "BRAIN",
  "ConsistencyInfo": "N4_VE11C_LATEST_20160120",
  "ConversionSoftware": "dcm2niix",
  "ConversionSoftwareVersion": "v1.0.20170923 (OpenJPEG build) GCC6.3.0",
  "DerivedVendorReportedEchoSpacing": 0.000490004,
  "DeviceSerialNumber": "66112",
  "DwellTime": 2.2e-06,
  "EchoTime": 0.025,
  "EchoTrainLength": 39,
  "EffectiveEchoSpacing": 0.000245002,
  "FlipAngle": 75,
  "ImageType": [
    "ORIGINAL",
    "PRIMARY",
    "FMRI",
    "NONE",
    "ND",
    "NORM",
    "MOSAIC"
],
  "InstitutionAddress": "Maynard_3_Hanover_NH_US_03755",
  "InstitutionName": "Dartmouth_College_-_PBS",
  "MagneticFieldStrength": 3,
  "Manufacturer": "Siemens",
  "ManufacturersModelName": "Prisma",
  "Modality": "MR",
  "ParallelReductionFactorInPlane": 2,
  "PartialFourier": 1,
  "PercentPhaseFOV": 100,
  "PhaseEncodingDirection": "j-",
  "PhaseEncodingSteps": 79,
  "PhaseResolution": 1,
  "ProcedureStepDescription": "Chang_Chang_1039_fnlpilot",
  "ProtocolName": "func_run-01_task-movie",
  "PulseSequenceDetails": "%SiemensSeq%_ep2d_bold",
  "ReceiveCoilActiveElements": "HEA;HEP",
  "ReceiveCoilName": "Head_32",
  "ReconMatrixPE": 80,
  "RepetitionTime": 2,
  "ScanOptions": "FS",
  "ScanningSequence": "EP",
  "SequenceName": "_epfid2d1_80",
  "SequenceVariant": "SK",
  "SeriesDescription": "func_run-01_task-movie",
  "SliceTiming": [0.99, 0, 1.04, 0.05, 1.09, 0.1, 1.14, 0.15, 1.1875, 0.1975, 1.2375, 0.2475, 1.2875, 0.2975, 1.3375, 0.3475, 1.3875, 0.3975, 1.435, 0.445, 1.485, 0.495, 1.535, 0.545, 1.585, 0.595, 1.6325, 0.645, 1.6825, 0.6925, 1.7325, 0.7425, 1.7825, 0.7925, 1.8325, 0.8425, 1.88, 0.8925, 1.93, 0.94],
  "SoftwareVersions": "syngo_MR_E11",
  "StationName": "AWP66112",
  "TaskName": "movie",
  "TotalReadoutTime": 0.0193552,
  "dcmmeta_affine": [
    [-2.984927177429199, -0.24907734990119934, -0.16784155368804932, 133.80638122558594],
    [-0.2719248831272125, 2.953000068664551, 0.45370474457740784, -105.24107360839844],
    [-0.12754285335540771, -0.46663862466812134, 2.960739850997925, -12.050339698791504],
    [0.0, 0.0, 0.0, 1.0]
],
  "dcmmeta_reorient_transform": [
    [0.0, -1.0, 0.0, 79.0],
    [1.0, 0.0, 0.0, 0.0],
    [0.0, 0.0, 1.0, 0.0],
    [0.0, 0.0, 0.0, 1.0]
],
  "dcmmeta_shape": [80, 80, 40, 1369],
  "dcmmeta_slice_dim": 2,
  "dcmmeta_version": 0.6,
  "global": {
    "const": {
      "AccessionNumber": "A001100",
      "AcquisitionMatrix": [80, 0, 0, 80],
      "AngioFlag": "N",
      "BitsAllocated": 16,
      "BitsStored": 12,
      "BodyPartExamined": "BRAIN",
      "Columns": 560,
      "EchoNumbers": 1,
      "EchoTime": 25.0,
      "EchoTrainLength": 39,
      "FlipAngle": 75.0,
      "HighBit": 11,
      "ImageOrientationPatient": [0.99497569413299, 0.09064162322944, -0.0425142825755, -0.0830257818959, 0.98433332586572, 0.15554620898854],
      "ImagePositionPatient": [-770.7332111226, -902.02788818295, -130.29777796478],
      "ImageType": [
        "ORIGINAL",
        "PRIMARY",
        "FMRI",
        "NONE",
        "ND",
        "NORM",
        "MOSAIC"
],
      "ImagedNucleus": "1H",
      "ImagingFrequency": 123.252284,
      "InPlanePhaseEncodingDirection": "COL",
      "MRAcquisitionType": "2D",
      "MagneticFieldStrength": 3.0,
      "Manufacturer": "SIEMENS",
      "ManufacturerModelName": "Prisma",
      "Modality": "MR",
      "NumberOfAverages": 1.0,
      "NumberOfPhaseEncodingSteps": 79,
      "PercentPhaseFieldOfView": 100.0,
      "PercentSampling": 100.0,
      "PerformedProcedureStepStartTime": "200909.334000",
      "PhotometricInterpretation": "MONOCHROME2",
      "PixelBandwidth": 2840.0,
      "PixelRepresentation": 0,
      "PixelSpacing": [3.0, 3.0],
      "PositionReferenceIndicator": "",
      "ProtocolName": "func_run-01_task-movie",
      "RepetitionTime": 2000.0,
      "Rows": 560,
      "SAR": 0.08660230130519,
      "SamplesPerPixel": 1,
      "ScanOptions": "FS",
      "ScanningSequence": "EP",
      "SequenceName": "*epfid2d1_80",
      "SequenceVariant": "SK",
      "SeriesDescription": "func_run-01_task-movie",
      "SeriesNumber": 9,
      "SeriesTime": "202851.302000",
      "SliceLocation": -35.294856107931,
      "SliceThickness": 3.0,
      "SmallestImagePixelValue": 0,
      "SoftwareVersions": "syngo MR E11",
      "SpacingBetweenSlices": 2.9999999421124,
      "SpecificCharacterSet": "ISO_IR 100",
      "StudyID": "1",
      "StudyTime": "200909.284000",
      "TransmitCoilName": "Body",
      "VariableFlipAngleFlag": "N",
      "WindowCenterWidthExplanation": "Algo1",
      "dBdt": 0.0},
    "slices": {}
  },
  "time": {
    "samples": {
      "AcquisitionNumber": [1, 2, 3, 4, 5, 6, 7, 8, 9, 10, 11, 12, 13, 14, 15, 16, 17, 18, 19, 20, 21, 22, 23, 24, 25, 26, 27, 28, 29, 30, 31, 32, 33, 34, 35, 36, 37, 38, 39, 40, 41, 42, 43, 44, 45, 46, 47, 48, 49, 50, 51, 52, 53, 54, 55, 56, 57, 58, 59, 60, 61, 62, 63, 64, 65, 66, 67, 68, 69, 70, 71, 72, 73, 74, 75, 76, 77, 78, 79, 80, 81, 82, 83, 84, 85, 86, 87, 88, 89, 90, 91, 92, 93, 94, 95, 96, 97, 98, 99, 100, 101, 102, 103, 104, 105, 106, 107, 108, 109, 110, 111, 112, 113, 114, 115, 116, 117, 118, 119, 120, 121, 122, 123, 124, 125, 126, 127, 128, 129, 130, 131, 132, 133, 134, 135, 136, 137, 138, 139, 140, 141, 142, 143, 144, 145, 146, 147, 148, 149, 150, 151, 152, 153, 154, 155, 156, 157, 158, 159, 160, 161, 162, 163, 164, 165, 166, 167, 168, 169, 170, 171, 172, 173, 174, 175, 176, 177, 178, 179, 180, 181, 182, 183, 184, 185, 186, 187, 188, 189, 190, 191, 192, 193, 194, 195, 196, 197, 198, 199, 200, 201, 202, 203, 204, 205, 206, 207, 208, 209, 210, 211, 212, 213, 214, 215, 216, 217, 218, 219, 220, 221, 222, 223, 224, 225, 226, 227, 228, 229, 230, 231, 232, 233, 234, 235, 236, 237, 238, 239, 240, 241, 242, 243, 244, 245, 246, 247, 248, 249, 250, 251, 252, 253, 254, 255, 256, 257, 258, 259, 260, 261, 262, 263, 264, 265, 266, 267, 268, 269, 270, 271, 272, 273, 274, 275, 276, 277, 278, 279, 280, 281, 282, 283, 284, 285, 286, 287, 288, 289, 290, 291, 292, 293, 294, 295, 296, 297, 298, 299, 300, 301, 302, 303, 304, 305, 306, 307, 308, 309, 310, 311, 312, 313, 314, 315, 316, 317, 318, 319, 320, 321, 322, 323, 324, 325, 326, 327, 328, 329, 330, 331, 332, 333, 334, 335, 336, 337, 338, 339, 340, 341, 342, 343, 344, 345, 346, 347, 348, 349, 350, 351, 352, 353, 354, 355, 356, 357, 358, 359, 360, 361, 362, 363, 364, 365, 366, 367, 368, 369, 370, 371, 372, 373, 374, 375, 376, 377, 378, 379, 380, 381, 382, 383, 384, 385, 386, 387, 388, 389, 390, 391, 392, 393, 394, 395, 396, 397, 398, 399, 400, 401, 402, 403, 404, 405, 406, 407, 408, 409, 410, 411, 412, 413, 414, 415, 416, 417, 418, 419, 420, 421, 422, 423, 424, 425, 426, 427, 428, 429, 430, 431, 432, 433, 434, 435, 436, 437, 438, 439, 440, 441, 442, 443, 444, 445, 446, 447, 448, 449, 450, 451, 452, 453, 454, 455, 456, 457, 458, 459, 460, 461, 462, 463, 464, 465, 466, 467, 468, 469, 470, 471, 472, 473, 474, 475, 476, 477, 478, 479, 480, 481, 482, 483, 484, 485, 486, 487, 488, 489, 490, 491, 492, 493, 494, 495, 496, 497, 498, 499, 500, 501, 502, 503, 504, 505, 506, 507, 508, 509, 510, 511, 512, 513, 514, 515, 516, 517, 518, 519, 520, 521, 522, 523, 524, 525, 526, 527, 528, 529, 530, 531, 532, 533, 534, 535, 536, 537, 538, 539, 540, 541, 542, 543, 544, 545, 546, 547, 548, 549, 550, 551, 552, 553, 554, 555, 556, 557, 558, 559, 560, 561, 562, 563, 564, 565, 566, 567, 568, 569, 570, 571, 572, 573, 574, 575, 576, 577, 578, 579, 580, 581, 582, 583, 584, 585, 586, 587, 588, 589, 590, 591, 592, 593, 594, 595, 596, 597, 598, 599, 600, 601, 602, 603, 604, 605, 606, 607, 608, 609, 610, 611, 612, 613, 614, 615, 616, 617, 618, 619, 620, 621, 622, 623, 624, 625, 626, 627, 628, 629, 630, 631, 632, 633, 634, 635, 636, 637, 638, 639, 640, 641, 642, 643, 644, 645, 646, 647, 648, 649, 650, 651, 652, 653, 654, 655, 656, 657, 658, 659, 660, 661, 662, 663, 664, 665, 666, 667, 668, 669, 670, 671, 672, 673, 674, 675, 676, 677, 678, 679, 680, 681, 682, 683, 684, 685, 686, 687, 688, 689, 690, 691, 692, 693, 694, 695, 696, 697, 698, 699, 700, 701, 702, 703, 704, 705, 706, 707, 708, 709, 710, 711, 712, 713, 714, 715, 716, 717, 718, 719, 720, 721, 722, 723, 724, 725, 726, 727, 728, 729, 730, 731, 732, 733, 734, 735, 736, 737, 738, 739, 740, 741, 742, 743, 744, 745, 746, 747, 748, 749, 750, 751, 752, 753, 754, 755, 756, 757, 758, 759, 760, 761, 762, 763, 764, 765, 766, 767, 768, 769, 770, 771, 772, 773, 774, 775, 776, 777, 778, 779, 780, 781, 782, 783, 784, 785, 786, 787, 788, 789, 790, 791, 792, 793, 794, 795, 796, 797, 798, 799, 800, 801, 802, 803, 804, 805, 806, 807, 808, 809, 810, 811, 812, 813, 814, 815, 816, 817, 818, 819, 820, 821, 822, 823, 824, 825, 826, 827, 828, 829, 830, 831, 832, 833, 834, 835, 836, 837, 838, 839, 840, 841, 842, 843, 844, 845, 846, 847, 848, 849, 850, 851, 852, 853, 854, 855, 856, 857, 858, 859, 860, 861, 862, 863, 864, 865, 866, 867, 868, 869, 870, 871, 872, 873, 874, 875, 876, 877, 878, 879, 880, 881, 882, 883, 884, 885, 886, 887, 888, 889, 890, 891, 892, 893, 894, 895, 896, 897, 898, 899, 900, 901, 902, 903, 904, 905, 906, 907, 908, 909, 910, 911, 912, 913, 914, 915, 916, 917, 918, 919, 920, 921, 922, 923, 924, 925, 926, 927, 928, 929, 930, 931, 932, 933, 934, 935, 936, 937, 938, 939, 940, 941, 942, 943, 944, 945, 946, 947, 948, 949, 950, 951, 952, 953, 954, 955, 956, 957, 958, 959, 960, 961, 962, 963, 964, 965, 966, 967, 968, 969, 970, 971, 972, 973, 974, 975, 976, 977, 978, 979, 980, 981, 982, 983, 984, 985, 986, 987, 988, 989, 990, 991, 992, 993, 994, 995, 996, 997, 998, 999, 1000, 1001, 1002, 1003, 1004, 1005, 1006, 1007, 1008, 1009, 1010, 1011, 1012, 1013, 1014, 1015, 1016, 1017, 1018, 1019, 1020, 1021, 1022, 1023, 1024, 1025, 1026, 1027, 1028, 1029, 1030, 1031, 1032, 1033, 1034, 1035, 1036, 1037, 1038, 1039, 1040, 1041, 1042, 1043, 1044, 1045, 1046, 1047, 1048, 1049, 1050, 1051, 1052, 1053, 1054, 1055, 1056, 1057, 1058, 1059, 1060, 1061, 1062, 1063, 1064, 1065, 1066, 1067, 1068, 1069, 1070, 1071, 1072, 1073, 1074, 1075, 1076, 1077, 1078, 1079, 1080, 1081, 1082, 1083, 1084, 1085, 1086, 1087, 1088, 1089, 1090, 1091, 1092, 1093, 1094, 1095, 1096, 1097, 1098, 1099, 1100, 1101, 1102, 1103, 1104, 1105, 1106, 1107, 1108, 1109, 1110, 1111, 1112, 1113, 1114, 1115, 1116, 1117, 1118, 1119, 1120, 1121, 1122, 1123, 1124, 1125, 1126, 1127, 1128, 1129, 1130, 1131, 1132, 1133, 1134, 1135, 1136, 1137, 1138, 1139, 1140, 1141, 1142, 1143, 1144, 1145, 1146, 1147, 1148, 1149, 1150, 1151, 1152, 1153, 1154, 1155, 1156, 1157, 1158, 1159, 1160, 1161, 1162, 1163, 1164, 1165, 1166, 1167, 1168, 1169, 1170, 1171, 1172, 1173, 1174, 1175, 1176, 1177, 1178, 1179, 1180, 1181, 1182, 1183, 1184, 1185, 1186, 1187, 1188, 1189, 1190, 1191, 1192, 1193, 1194, 1195, 1196, 1197, 1198, 1199, 1200, 1201, 1202, 1203, 1204, 1205, 1206, 1207, 1208, 1209, 1210, 1211, 1212, 1213, 1214, 1215, 1216, 1217, 1218, 1219, 1220, 1221, 1222, 1223, 1224, 1225, 1226, 1227, 1228, 1229, 1230, 1231, 1232, 1233, 1234, 1235, 1236, 1237, 1238, 1239, 1240, 1241, 1242, 1243, 1244, 1245, 1246, 1247, 1248, 1249, 1250, 1251, 1252, 1253, 1254, 1255, 1256, 1257, 1258, 1259, 1260, 1261, 1262, 1263, 1264, 1265, 1266, 1267, 1268, 1269, 1270, 1271, 1272, 1273, 1274, 1275, 1276, 1277, 1278, 1279, 1280, 1281, 1282, 1283, 1284, 1285, 1286, 1287, 1288, 1289, 1290, 1291, 1292, 1293, 1294, 1295, 1296, 1297, 1298, 1299, 1300, 1301, 1302, 1303, 1304, 1305, 1306, 1307, 1308, 1309, 1310, 1311, 1312, 1313, 1314, 1315, 1316, 1317, 1318, 1319, 1320, 1321, 1322, 1323, 1324, 1325, 1326, 1327, 1328, 1329, 1330, 1331, 1332, 1333, 1334, 1335, 1336, 1337, 1338, 1339, 1340, 1341, 1342, 1343, 1344, 1345, 1346, 1347, 1348, 1349, 1350, 1351, 1352, 1353, 1354, 1355, 1356, 1357, 1358, 1359, 1360, 1361, 1362, 1363, 1364, 1365, 1366, 1367, 1368, 1369],
      "AcquisitionTime": ["202849.597500", "202851.597500", "202853.597500", "202855.597500", "202857.597500", "202859.597500", "202901.597500", "202903.597500", "202905.597500", "202907.597500", "202909.597500", "202911.597500", "202913.597500", "202915.597500", "202917.597500", "202919.597500", "202921.597500", "202923.597500", "202925.597500", "202927.597500", "202929.597500", "202931.597500", "202933.597500", "202935.597500", "202937.597500", "202939.597500", "202941.597500", "202943.597500", "202945.597500", "202947.597500", "202949.597500", "202951.597500", "202953.597500", "202955.597500", "202957.597500", "202959.597500", "203001.597500", "203003.597500", "203005.597500", "203007.597500", "203009.597500", "203011.597500", "203013.597500", "203015.597500", "203017.597500", "203019.597500", "203021.597500", "203023.597500", "203025.597500", "203027.597500", "203029.597500", "203031.597500", "203033.597500", "203035.597500", "203037.597500", "203039.597500", "203041.597500", "203043.597500", "203045.597500", "203047.597500", "203049.597500", "203051.597500", "203053.597500", "203055.597500", "203057.597500", "203059.597500", "203101.597500", "203103.597500", "203105.597500", "203107.597500", "203109.597500", "203111.597500", "203113.597500", "203115.597500", "203117.597500", "203119.597500", "203121.597500", "203123.597500", "203125.597500", "203127.597500", "203129.597500", "203131.597500", "203133.597500", "203135.597500", "203137.597500", "203139.597500", "203141.597500", "203143.597500", "203145.597500", "203147.597500", "203149.597500", "203151.597500", "203153.597500", "203155.597500", "203157.597500", "203159.597500", "203201.597500", "203203.597500", "203205.597500", "203207.597500", "203209.597500", "203211.597500", "203213.597500", "203215.597500", "203217.597500", "203219.597500", "203221.597500", "203223.597500", "203225.597500", "203227.597500", "203229.597500", "203231.597500", "203233.597500", "203235.597500", "203237.597500", "203239.597500", "203241.597500", "203243.597500", "203245.597500", "203247.597500", "203249.597500", "203251.597500", "203253.597500", "203255.597500", "203257.597500", "203259.597500", "203301.597500", "203303.597500", "203305.597500", "203307.597500", "203309.597500", "203311.597500", "203313.597500", "203315.597500", "203317.597500", "203319.597500", "203321.597500", "203323.597500", "203325.597500", "203327.597500", "203329.597500", "203331.597500", "203333.597500", "203335.597500", "203337.597500", "203339.597500", "203341.597500", "203343.597500", "203345.597500", "203347.597500", "203349.597500", "203351.597500", "203353.597500", "203355.597500", "203357.597500", "203359.597500", "203401.597500", "203403.597500", "203405.597500", "203407.597500", "203409.597500", "203411.597500", "203413.597500", "203415.597500", "203417.597500", "203419.597500", "203421.597500", "203423.597500", "203425.597500", "203427.597500", "203429.597500", "203431.597500", "203433.597500", "203435.597500", "203437.597500", "203439.597500", "203441.597500", "203443.597500", "203445.597500", "203447.597500", "203449.597500", "203451.597500", "203453.597500", "203455.597500", "203457.597500", "203459.597500", "203501.597500", "203503.597500", "203505.597500", "203507.597500", "203509.597500", "203511.597500", "203513.597500", "203515.597500", "203517.597500", "203519.597500", "203521.597500", "203523.597500", "203525.597500", "203527.597500", "203529.597500", "203531.597500", "203533.597500", "203535.597500", "203537.597500", "203539.597500", "203541.597500", "203543.597500", "203545.597500", "203547.597500", "203549.597500", "203551.597500", "203553.597500", "203555.597500", "203557.597500", "203559.597500", "203601.597500", "203603.597500", "203605.597500", "203607.597500", "203609.597500", "203611.597500", "203613.597500", "203615.597500", "203617.597500", "203619.597500", "203621.597500", "203623.597500", "203625.597500", "203627.597500", "203629.597500", "203631.597500", "203633.597500", "203635.597500", "203637.597500", "203639.597500", "203641.597500", "203643.597500", "203645.597500", "203647.597500", "203649.597500", "203651.597500", "203653.597500", "203655.597500", "203657.597500", "203659.597500", "203701.597500", "203703.597500", "203705.597500", "203707.597500", "203709.597500", "203711.597500", "203713.597500", "203715.597500", "203717.597500", "203719.597500", "203721.597500", "203723.597500", "203725.597500", "203727.597500", "203729.597500", "203731.597500", "203733.597500", "203735.597500", "203737.597500", "203739.597500", "203741.597500", "203743.597500", "203745.597500", "203747.597500", "203749.597500", "203751.597500", "203753.597500", "203755.597500", "203757.597500", "203759.597500", "203801.597500", "203803.597500", "203805.597500", "203807.597500", "203809.597500", "203811.597500", "203813.597500", "203815.597500", "203817.597500", "203819.597500", "203821.597500", "203823.597500", "203825.597500", "203827.597500", "203829.597500", "203831.597500", "203833.597500", "203835.597500", "203837.597500", "203839.597500", "203841.597500", "203843.597500", "203845.597500", "203847.597500", "203849.597500", "203851.597500", "203853.597500", "203855.597500", "203857.597500", "203859.597500", "203901.597500", "203903.597500", "203905.597500", "203907.597500", "203909.597500", "203911.597500", "203913.597500", "203915.597500", "203917.597500", "203919.597500", "203921.597500", "203923.597500", "203925.597500", "203927.597500", "203929.597500", "203931.597500", "203933.597500", "203935.597500", "203937.597500", "203939.597500", "203941.597500", "203943.597500", "203945.597500", "203947.597500", "203949.597500", "203951.597500", "203953.597500", "203955.597500", "203957.597500", "203959.597500", "204001.597500", "204003.597500", "204005.597500", "204007.597500", "204009.597500", "204011.597500", "204013.597500", "204015.597500", "204017.597500", "204019.597500", "204021.597500", "204023.597500", "204025.597500", "204027.597500", "204029.597500", "204031.597500", "204033.597500", "204035.597500", "204037.597500", "204039.597500", "204041.597500", "204043.597500", "204045.597500", "204047.597500", "204049.597500", "204051.597500", "204053.597500", "204055.597500", "204057.597500", "204059.597500", "204101.597500", "204103.597500", "204105.597500", "204107.597500", "204109.597500", "204111.597500", "204113.597500", "204115.597500", "204117.597500", "204119.597500", "204121.597500", "204123.597500", "204125.597500", "204127.597500", "204129.597500", "204131.597500", "204133.597500", "204135.597500", "204137.597500", "204139.597500", "204141.597500", "204143.597500", "204145.597500", "204147.597500", "204149.597500", "204151.597500", "204153.597500", "204155.597500", "204157.597500", "204159.597500", "204201.597500", "204203.597500", "204205.597500", "204207.597500", "204209.597500", "204211.597500", "204213.597500", "204215.597500", "204217.597500", "204219.597500", "204221.597500", "204223.597500", "204225.597500", "204227.597500", "204229.597500", "204231.597500", "204233.597500", "204235.597500", "204237.597500", "204239.597500", "204241.597500", "204243.597500", "204245.597500", "204247.597500", "204249.597500", "204251.597500", "204253.597500", "204255.597500", "204257.597500", "204259.597500", "204301.597500", "204303.597500", "204305.597500", "204307.597500", "204309.597500", "204311.597500", "204313.597500", "204315.597500", "204317.597500", "204319.597500", "204321.597500", "204323.597500", "204325.597500", "204327.597500", "204329.597500", "204331.597500", "204333.597500", "204335.597500", "204337.597500", "204339.597500", "204341.597500", "204343.597500", "204345.597500", "204347.597500", "204349.597500", "204351.597500", "204353.597500", "204355.597500", "204357.597500", "204359.597500", "204401.597500", "204403.597500", "204405.597500", "204407.597500", "204409.597500", "204411.597500", "204413.597500", "204415.597500", "204417.597500", "204419.597500", "204421.597500", "204423.597500", "204425.597500", "204427.597500", "204429.597500", "204431.597500", "204433.597500", "204435.597500", "204437.597500", "204439.597500", "204441.597500", "204443.597500", "204445.597500", "204447.597500", "204449.597500", "204451.597500", "204453.597500", "204455.597500", "204457.597500", "204459.597500", "204501.597500", "204503.597500", "204505.597500", "204507.597500", "204509.597500", "204511.597500", "204513.597500", "204515.597500", "204517.597500", "204519.597500", "204521.597500", "204523.597500", "204525.597500", "204527.597500", "204529.597500", "204531.597500", "204533.597500", "204535.597500", "204537.597500", "204539.597500", "204541.597500", "204543.597500", "204545.597500", "204547.597500", "204549.597500", "204551.597500", "204553.597500", "204555.597500", "204557.597500", "204559.597500", "204601.597500", "204603.597500", "204605.597500", "204607.597500", "204609.597500", "204611.597500", "204613.597500", "204615.597500", "204617.597500", "204619.597500", "204621.597500", "204623.597500", "204625.597500", "204627.597500", "204629.597500", "204631.597500", "204633.597500", "204635.597500", "204637.597500", "204639.597500", "204641.597500", "204643.597500", "204645.597500", "204647.597500", "204649.597500", "204651.597500", "204653.597500", "204655.597500", "204657.597500", "204659.597500", "204701.597500", "204703.597500", "204705.597500", "204707.597500", "204709.597500", "204711.597500", "204713.597500", "204715.597500", "204717.597500", "204719.597500", "204721.597500", "204723.597500", "204725.597500", "204727.597500", "204729.597500", "204731.597500", "204733.597500", "204735.597500", "204737.597500", "204739.597500", "204741.597500", "204743.597500", "204745.597500", "204747.597500", "204749.597500", "204751.597500", "204753.597500", "204755.597500", "204757.597500", "204759.597500", "204801.597500", "204803.597500", "204805.597500", "204807.597500", "204809.597500", "204811.597500", "204813.597500", "204815.597500", "204817.597500", "204819.597500", "204821.597500", "204823.597500", "204825.597500", "204827.597500", "204829.597500", "204831.597500", "204833.597500", "204835.597500", "204837.597500", "204839.597500", "204841.597500", "204843.597500", "204845.597500", "204847.597500", "204849.597500", "204851.597500", "204853.597500", "204855.597500", "204857.597500", "204859.597500", "204901.597500", "204903.597500", "204905.597500", "204907.597500", "204909.597500", "204911.597500", "204913.597500", "204915.597500", "204917.597500", "204919.597500", "204921.597500", "204923.597500", "204925.597500", "204927.597500", "204929.597500", "204931.597500", "204933.597500", "204935.597500", "204937.597500", "204939.597500", "204941.597500", "204943.597500", "204945.597500", "204947.597500", "204949.597500", "204951.597500", "204953.597500", "204955.597500", "204957.597500", "204959.597500", "205001.597500", "205003.597500", "205005.597500", "205007.597500", "205009.597500", "205011.597500", "205013.597500", "205015.597500", "205017.597500", "205019.597500", "205021.597500", "205023.597500", "205025.597500", "205027.597500", "205029.597500", "205031.597500", "205033.597500", "205035.597500", "205037.597500", "205039.597500", "205041.597500", "205043.597500", "205045.597500", "205047.597500", "205049.597500", "205051.597500", "205053.597500", "205055.597500", "205057.597500", "205059.597500", "205101.597500", "205103.597500", "205105.597500", "205107.597500", "205109.597500", "205111.597500", "205113.597500", "205115.597500", "205117.597500", "205119.597500", "205121.597500", "205123.597500", "205125.597500", "205127.597500", "205129.597500", "205131.597500", "205133.597500", "205135.597500", "205137.597500", "205139.597500", "205141.597500", "205143.597500", "205145.597500", "205147.597500", "205149.597500", "205151.597500", "205153.597500", "205155.597500", "205157.597500", "205159.597500", "205201.597500", "205203.597500", "205205.597500", "205207.597500", "205209.597500", "205211.597500", "205213.597500", "205215.597500", "205217.597500", "205219.597500", "205221.597500", "205223.597500", "205225.597500", "205227.597500", "205229.597500", "205231.597500", "205233.597500", "205235.597500", "205237.597500", "205239.597500", "205241.597500", "205243.597500", "205245.597500", "205247.597500", "205249.597500", "205251.597500", "205253.597500", "205255.597500", "205257.597500", "205259.597500", "205301.597500", "205303.597500", "205305.597500", "205307.597500", "205309.597500", "205311.597500", "205313.597500", "205315.597500", "205317.597500", "205319.597500", "205321.597500", "205323.597500", "205325.597500", "205327.597500", "205329.597500", "205331.597500", "205333.597500", "205335.597500", "205337.597500", "205339.597500", "205341.597500", "205343.597500", "205345.597500", "205347.597500", "205349.597500", "205351.597500", "205353.597500", "205355.597500", "205357.597500", "205359.597500", "205401.597500", "205403.597500", "205405.597500", "205407.597500", "205409.597500", "205411.597500", "205413.597500", "205415.597500", "205417.597500", "205419.597500", "205421.597500", "205423.597500", "205425.597500", "205427.597500", "205429.597500", "205431.597500", "205433.597500", "205435.597500", "205437.597500", "205439.597500", "205441.597500", "205443.597500", "205445.597500", "205447.597500", "205449.597500", "205451.597500", "205453.597500", "205455.597500", "205457.597500", "205459.597500", "205501.597500", "205503.597500", "205505.597500", "205507.597500", "205509.597500", "205511.597500", "205513.597500", "205515.597500", "205517.597500", "205519.597500", "205521.597500", "205523.597500", "205525.597500", "205527.597500", "205529.597500", "205531.597500", "205533.597500", "205535.597500", "205537.597500", "205539.597500", "205541.597500", "205543.597500", "205545.597500", "205547.597500", "205549.597500", "205551.597500", "205553.597500", "205555.597500", "205557.597500", "205559.597500", "205601.597500", "205603.597500", "205605.597500", "205607.597500", "205609.597500", "205611.597500", "205613.597500", "205615.597500", "205617.597500", "205619.597500", "205621.597500", "205623.597500", "205625.597500", "205627.597500", "205629.597500", "205631.597500", "205633.597500", "205635.597500", "205637.597500", "205639.597500", "205641.597500", "205643.597500", "205645.597500", "205647.597500", "205649.597500", "205651.597500", "205653.597500", "205655.597500", "205657.597500", "205659.597500", "205701.597500", "205703.597500", "205705.597500", "205707.597500", "205709.597500", "205711.597500", "205713.597500", "205715.597500", "205717.597500", "205719.597500", "205721.597500", "205723.597500", "205725.597500", "205727.597500", "205729.597500", "205731.597500", "205733.597500", "205735.597500", "205737.597500", "205739.597500", "205741.597500", "205743.597500", "205745.597500", "205747.597500", "205749.597500", "205751.597500", "205753.597500", "205755.597500", "205757.597500", "205759.597500", "205801.597500", "205803.597500", "205805.597500", "205807.597500", "205809.597500", "205811.597500", "205813.597500", "205815.597500", "205817.597500", "205819.597500", "205821.597500", "205823.597500", "205825.597500", "205827.597500", "205829.597500", "205831.597500", "205833.597500", "205835.597500", "205837.597500", "205839.597500", "205841.597500", "205843.597500", "205845.597500", "205847.597500", "205849.597500", "205851.597500", "205853.597500", "205855.597500", "205857.597500", "205859.597500", "205901.597500", "205903.597500", "205905.597500", "205907.597500", "205909.597500", "205911.597500", "205913.597500", "205915.597500", "205917.597500", "205919.597500", "205921.597500", "205923.597500", "205925.597500", "205927.597500", "205929.597500", "205931.597500", "205933.597500", "205935.597500", "205937.597500", "205939.597500", "205941.597500", "205943.597500", "205945.597500", "205947.597500", "205949.597500", "205951.597500", "205953.597500", "205955.597500", "205957.597500", "205959.597500", "210001.597500", "210003.597500", "210005.597500", "210007.597500", "210009.597500", "210011.597500", "210013.597500", "210015.597500", "210017.597500", "210019.597500", "210021.597500", "210023.597500", "210025.597500", "210027.597500", "210029.597500", "210031.597500", "210033.597500", "210035.597500", "210037.597500", "210039.597500", "210041.597500", "210043.597500", "210045.597500", "210047.597500", "210049.597500", "210051.597500", "210053.597500", "210055.597500", "210057.597500", "210059.597500", "210101.597500", "210103.597500", "210105.597500", "210107.597500", "210109.597500", "210111.597500", "210113.597500", "210115.597500", "210117.597500", "210119.597500", "210121.597500", "210123.597500", "210125.597500", "210127.597500", "210129.597500", "210131.597500", "210133.597500", "210135.597500", "210137.597500", "210139.597500", "210141.597500", "210143.597500", "210145.597500", "210147.597500", "210149.597500", "210151.597500", "210153.597500", "210155.597500", "210157.597500", "210159.597500", "210201.597500", "210203.597500", "210205.597500", "210207.597500", "210209.597500", "210211.597500", "210213.597500", "210215.597500", "210217.597500", "210219.597500", "210221.597500", "210223.597500", "210225.597500", "210227.597500", "210229.597500", "210231.597500", "210233.597500", "210235.597500", "210237.597500", "210239.597500", "210241.597500", "210243.597500", "210245.597500", "210247.597500", "210249.597500", "210251.597500", "210253.597500", "210255.597500", "210257.597500", "210259.597500", "210301.597500", "210303.597500", "210305.597500", "210307.597500", "210309.597500", "210311.597500", "210313.597500", "210315.597500", "210317.597500", "210319.597500", "210321.597500", "210323.597500", "210325.597500", "210327.597500", "210329.597500", "210331.597500", "210333.597500", "210335.597500", "210337.597500", "210339.597500", "210341.597500", "210343.597500", "210345.597500", "210347.597500", "210349.597500", "210351.597500", "210353.597500", "210355.597500", "210357.597500", "210359.597500", "210401.597500", "210403.597500", "210405.597500", "210407.597500", "210409.597500", "210411.597500", "210413.5975