{
  "AcquisitionMatrixPE": 80,
  "AcquisitionNumber": 1,
  "AcquisitionTime": "11:40:25.447500",
  "BandwidthPerPixelPhaseEncode": 51.02,
  "BaseResolution": 80,
  "BodyPartExamined": "BRAIN",
  "ConsistencyInfo": "N4_VE11C_LATEST_20160120",
  "ConversionSoftware": "dcm2niix",
  "ConversionSoftwareVersion": "v1.0.20170923 (OpenJPEG build) GCC6.3.0",
  "DerivedVendorReportedEchoSpacing": 0.000490004,
  "DeviceSerialNumber": "66112",
  "DwellTime": 2.2e-06,
  "EchoTime": 0.025,
  "EchoTrainLength": 39,
  "EffectiveEchoSpacing": 0.000245002,
  "FlipAngle": 75,
  "ImageType": [
    "ORIGINAL",
    "PRIMARY",
    "FMRI",
    "NONE",
    "ND",
    "NORM",
    "MOSAIC"
],
  "InstitutionAddress": "Maynard_3_Hanover_NH_US_03755",
  "InstitutionName": "Dartmouth_College_-_PBS",
  "MagneticFieldStrength": 3,
  "Manufacturer": "Siemens",
  "ManufacturersModelName": "Prisma",
  "Modality": "MR",
  "ParallelReductionFactorInPlane": 2,
  "PartialFourier": 1,
  "PercentPhaseFOV": 100,
  "PhaseEncodingDirection": "j-",
  "PhaseEncodingSteps": 79,
  "PhaseResolution": 1,
  "ProcedureStepDescription": "Chang_Chang_1039_fnlpilot",
  "ProtocolName": "func_run-01_task-movie",
  "PulseSequenceDetails": "%SiemensSeq%_ep2d_bold",
  "ReceiveCoilActiveElements": "HEA;HEP",
  "ReceiveCoilName": "Head_32",
  "ReconMatrixPE": 80,
  "RepetitionTime": 2,
  "ScanOptions": "FS",
  "ScanningSequence": "EP",
  "SequenceName": "_epfid2d1_80",
  "SequenceVariant": "SK",
  "SeriesDescription": "func_run-01_task-movie",
  "SliceTiming": [0.99, 0, 1.04, 0.05, 1.0875, 0.1, 1.1375, 0.1475, 1.1875, 0.1975, 1.2375, 0.2475, 1.2875, 0.2975, 1.335, 0.3475, 1.385, 0.395, 1.435, 0.445, 1.485, 0.495, 1.535, 0.545, 1.5825, 0.595, 1.6325, 0.6425, 1.6825, 0.6925, 1.7325, 0.7425, 1.7825, 0.7925, 1.83, 0.8425, 1.88, 0.89, 1.93, 0.94],
  "SoftwareVersions": "syngo_MR_E11",
  "StationName": "AWP66112",
  "TaskName": "movie",
  "TotalReadoutTime": 0.0193552,
  "dcmmeta_affine": [
    [-2.9997384548187256, 0.03874531388282776, -0.008214328438043594, 119.57106018066406],
    [0.039581049233675, 2.9549286365509033, -0.5165557861328125, -103.19535064697266],
    [-0.0014195464318618178, 0.5166191458702087, 2.9551823139190674, -82.40665435791016],
    [0.0, 0.0, 0.0, 1.0]
],
  "dcmmeta_reorient_transform": [
    [0.0, -1.0, 0.0, 79.0],
    [1.0, 0.0, 0.0, 0.0],
    [0.0, 0.0, 1.0, 0.0],
    [0.0, 0.0, 0.0, 1.0]
],
  "dcmmeta_shape": [80, 80, 40, 1369],
  "dcmmeta_slice_dim": 2,
  "dcmmeta_version": 0.6,
  "global": {
    "const": {
      "AccessionNumber": "A001072",
      "AcquisitionMatrix": [80, 0, 0, 80],
      "AngioFlag": "N",
      "BitsAllocated": 16,
      "BitsStored": 12,
      "BodyPartExamined": "BRAIN",
      "Columns": 560,
      "EchoNumbers": 1,
      "EchoTime": 25.0,
      "EchoTrainLength": 39,
      "FlipAngle": 75.0,
      "HighBit": 11,
      "ImageOrientationPatient": [0.99991284761031, -0.0131936834313, -0.0004731821534, 0.01291510510297, 0.98497622531301, -0.1722063751094],
      "ImagePositionPatient": [-851.86806286258, -829.92744401398, 82.735535742329],
      "ImageType": [
        "ORIGINAL",
        "PRIMARY",
        "FMRI",
        "NONE",
        "ND",
        "NORM",
        "MOSAIC"
],
      "ImagedNucleus": "1H",
      "ImagingFrequency": 123.252329,
      "InPlanePhaseEncodingDirection": "COL",
      "MRAcquisitionType": "2D",
      "MagneticFieldStrength": 3.0,
      "Manufacturer": "SIEMENS",
      "ManufacturerModelName": "Prisma",
      "Modality": "MR",
      "NumberOfAverages": 1.0,
      "NumberOfPhaseEncodingSteps": 79,
      "PercentPhaseFieldOfView": 100.0,
      "PercentSampling": 100.0,
      "PerformedProcedureStepStartTime": "112504.147000",
      "PhotometricInterpretation": "MONOCHROME2",
      "PixelBandwidth": 2840.0,
      "PixelRepresentation": 0,
      "PixelSpacing": [3.0, 3.0],
      "PositionReferenceIndicator": "",
      "ProtocolName": "func_run-01_task-movie",
      "RepetitionTime": 2000.0,
      "Rows": 560,
      "SAR": 0.08819998083698,
      "SamplesPerPixel": 1,
      "ScanOptions": "FS",
      "ScanningSequence": "EP",
      "SequenceName": "*epfid2d1_80",
      "SequenceVariant": "SK",
      "SeriesDescription": "func_run-01_task-movie",
      "SeriesNumber": 9,
      "SeriesTime": "114027.364000",
      "SliceLocation": -63.734245887778,
      "SliceThickness": 3.0,
      "SmallestImagePixelValue": 0,
      "SoftwareVersions": "syngo MR E11",
      "SpacingBetweenSlices": 2.9999999570921,
      "SpecificCharacterSet": "ISO_IR 100",
      "StudyID": "1",
      "StudyTime": "112504.076000",
      "TransmitCoilName": "Body",
      "VariableFlipAngleFlag": "N",
      "WindowCenterWidthExplanation": "Algo1",
      "dBdt": 0.0},
    "slices": {}
  },
  "time": {
    "samples": {
      "AcquisitionNumber": [1, 2, 3, 4, 5, 6, 7, 8, 9, 10, 11, 12, 13, 14, 15, 16, 17, 18, 19, 20, 21, 22, 23, 24, 25, 26, 27, 28, 29, 30, 31, 32, 33, 34, 35, 36, 37, 38, 39, 40, 41, 42, 43, 44, 45, 46, 47, 48, 49, 50, 51, 52, 53, 54, 55, 56, 57, 58, 59, 60, 61, 62, 63, 64, 65, 66, 67, 68, 69, 70, 71, 72, 73, 74, 75, 76, 77, 78, 79, 80, 81, 82, 83, 84, 85, 86, 87, 88, 89, 90, 91, 92, 93, 94, 95, 96, 97, 98, 99, 100, 101, 102, 103, 104, 105, 106, 107, 108, 109, 110, 111, 112, 113, 114, 115, 116, 117, 118, 119, 120, 121, 122, 123, 124, 125, 126, 127, 128, 129, 130, 131, 132, 133, 134, 135, 136, 137, 138, 139, 140, 141, 142, 143, 144, 145, 146, 147, 148, 149, 150, 151, 152, 153, 154, 155, 156, 157, 158, 159, 160, 161, 162, 163, 164, 165, 166, 167, 168, 169, 170, 171, 172, 173, 174, 175, 176, 177, 178, 179, 180, 181, 182, 183, 184, 185, 186, 187, 188, 189, 190, 191, 192, 193, 194, 195, 196, 197, 198, 199, 200, 201, 202, 203, 204, 205, 206, 207, 208, 209, 210, 211, 212, 213, 214, 215, 216, 217, 218, 219, 220, 221, 222, 223, 224, 225, 226, 227, 228, 229, 230, 231, 232, 233, 234, 235, 236, 237, 238, 239, 240, 241, 242, 243, 244, 245, 246, 247, 248, 249, 250, 251, 252, 253, 254, 255, 256, 257, 258, 259, 260, 261, 262, 263, 264, 265, 266, 267, 268, 269, 270, 271, 272, 273, 274, 275, 276, 277, 278, 279, 280, 281, 282, 283, 284, 285, 286, 287, 288, 289, 290, 291, 292, 293, 294, 295, 296, 297, 298, 299, 300, 301, 302, 303, 304, 305, 306, 307, 308, 309, 310, 311, 312, 313, 314, 315, 316, 317, 318, 319, 320, 321, 322, 323, 324, 325, 326, 327, 328, 329, 330, 331, 332, 333, 334, 335, 336, 337, 338, 339, 340, 341, 342, 343, 344, 345, 346, 347, 348, 349, 350, 351, 352, 353, 354, 355, 356, 357, 358, 359, 360, 361, 362, 363, 364, 365, 366, 367, 368, 369, 370, 371, 372, 373, 374, 375, 376, 377, 378, 379, 380, 381, 382, 383, 384, 385, 386, 387, 388, 389, 390, 391, 392, 393, 394, 395, 396, 397, 398, 399, 400, 401, 402, 403, 404, 405, 406, 407, 408, 409, 410, 411, 412, 413, 414, 415, 416, 417, 418, 419, 420, 421, 422, 423, 424, 425, 426, 427, 428, 429, 430, 431, 432, 433, 434, 435, 436, 437, 438, 439, 440, 441, 442, 443, 444, 445, 446, 447, 448, 449, 450, 451, 452, 453, 454, 455, 456, 457, 458, 459, 460, 461, 462, 463, 464, 465, 466, 467, 468, 469, 470, 471, 472, 473, 474, 475, 476, 477, 478, 479, 480, 481, 482, 483, 484, 485, 486, 487, 488, 489, 490, 491, 492, 493, 494, 495, 496, 497, 498, 499, 500, 501, 502, 503, 504, 505, 506, 507, 508, 509, 510, 511, 512, 513, 514, 515, 516, 517, 518, 519, 520, 521, 522, 523, 524, 525, 526, 527, 528, 529, 530, 531, 532, 533, 534, 535, 536, 537, 538, 539, 540, 541, 542, 543, 544, 545, 546, 547, 548, 549, 550, 551, 552, 553, 554, 555, 556, 557, 558, 559, 560, 561, 562, 563, 564, 565, 566, 567, 568, 569, 570, 571, 572, 573, 574, 575, 576, 577, 578, 579, 580, 581, 582, 583, 584, 585, 586, 587, 588, 589, 590, 591, 592, 593, 594, 595, 596, 597, 598, 599, 600, 601, 602, 603, 604, 605, 606, 607, 608, 609, 610, 611, 612, 613, 614, 615, 616, 617, 618, 619, 620, 621, 622, 623, 624, 625, 626, 627, 628, 629, 630, 631, 632, 633, 634, 635, 636, 637, 638, 639, 640, 641, 642, 643, 644, 645, 646, 647, 648, 649, 650, 651, 652, 653, 654, 655, 656, 657, 658, 659, 660, 661, 662, 663, 664, 665, 666, 667, 668, 669, 670, 671, 672, 673, 674, 675, 676, 677, 678, 679, 680, 681, 682, 683, 684, 685, 686, 687, 688, 689, 690, 691, 692, 693, 694, 695, 696, 697, 698, 699, 700, 701, 702, 703, 704, 705, 706, 707, 708, 709, 710, 711, 712, 713, 714, 715, 716, 717, 718, 719, 720, 721, 722, 723, 724, 725, 726, 727, 728, 729, 730, 731, 732, 733, 734, 735, 736, 737, 738, 739, 740, 741, 742, 743, 744, 745, 746, 747, 748, 749, 750, 751, 752, 753, 754, 755, 756, 757, 758, 759, 760, 761, 762, 763, 764, 765, 766, 767, 768, 769, 770, 771, 772, 773, 774, 775, 776, 777, 778, 779, 780, 781, 782, 783, 784, 785, 786, 787, 788, 789, 790, 791, 792, 793, 794, 795, 796, 797, 798, 799, 800, 801, 802, 803, 804, 805, 806, 807, 808, 809, 810, 811, 812, 813, 814, 815, 816, 817, 818, 819, 820, 821, 822, 823, 824, 825, 826, 827, 828, 829, 830, 831, 832, 833, 834, 835, 836, 837, 838, 839, 840, 841, 842, 843, 844, 845, 846, 847, 848, 849, 850, 851, 852, 853, 854, 855, 856, 857, 858, 859, 860, 861, 862, 863, 864, 865, 866, 867, 868, 869, 870, 871, 872, 873, 874, 875, 876, 877, 878, 879, 880, 881, 882, 883, 884, 885, 886, 887, 888, 889, 890, 891, 892, 893, 894, 895, 896, 897, 898, 899, 900, 901, 902, 903, 904, 905, 906, 907, 908, 909, 910, 911, 912, 913, 914, 915, 916, 917, 918, 919, 920, 921, 922, 923, 924, 925, 926, 927, 928, 929, 930, 931, 932, 933, 934, 935, 936, 937, 938, 939, 940, 941, 942, 943, 944, 945, 946, 947, 948, 949, 950, 951, 952, 953, 954, 955, 956, 957, 958, 959, 960, 961, 962, 963, 964, 965, 966, 967, 968, 969, 970, 971, 972, 973, 974, 975, 976, 977, 978, 979, 980, 981, 982, 983, 984, 985, 986, 987, 988, 989, 990, 991, 992, 993, 994, 995, 996, 997, 998, 999, 1000, 1001, 1002, 1003, 1004, 1005, 1006, 1007, 1008, 1009, 1010, 1011, 1012, 1013, 1014, 1015, 1016, 1017, 1018, 1019, 1020, 1021, 1022, 1023, 1024, 1025, 1026, 1027, 1028, 1029, 1030, 1031, 1032, 1033, 1034, 1035, 1036, 1037, 1038, 1039, 1040, 1041, 1042, 1043, 1044, 1045, 1046, 1047, 1048, 1049, 1050, 1051, 1052, 1053, 1054, 1055, 1056, 1057, 1058, 1059, 1060, 1061, 1062, 1063, 1064, 1065, 1066, 1067, 1068, 1069, 1070, 1071, 1072, 1073, 1074, 1075, 1076, 1077, 1078, 1079, 1080, 1081, 1082, 1083, 1084, 1085, 1086, 1087, 1088, 1089, 1090, 1091, 1092, 1093, 1094, 1095, 1096, 1097, 1098, 1099, 1100, 1101, 1102, 1103, 1104, 1105, 1106, 1107, 1108, 1109, 1110, 1111, 1112, 1113, 1114, 1115, 1116, 1117, 1118, 1119, 1120, 1121, 1122, 1123, 1124, 1125, 1126, 1127, 1128, 1129, 1130, 1131, 1132, 1133, 1134, 1135, 1136, 1137, 1138, 1139, 1140, 1141, 1142, 1143, 1144, 1145, 1146, 1147, 1148, 1149, 1150, 1151, 1152, 1153, 1154, 1155, 1156, 1157, 1158, 1159, 1160, 1161, 1162, 1163, 1164, 1165, 1166, 1167, 1168, 1169, 1170, 1171, 1172, 1173, 1174, 1175, 1176, 1177, 1178, 1179, 1180, 1181, 1182, 1183, 1184, 1185, 1186, 1187, 1188, 1189, 1190, 1191, 1192, 1193, 1194, 1195, 1196, 1197, 1198, 1199, 1200, 1201, 1202, 1203, 1204, 1205, 1206, 1207, 1208, 1209, 1210, 1211, 1212, 1213, 1214, 1215, 1216, 1217, 1218, 1219, 1220, 1221, 1222, 1223, 1224, 1225, 1226, 1227, 1228, 1229, 1230, 1231, 1232, 1233, 1234, 1235, 1236, 1237, 1238, 1239, 1240, 1241, 1242, 1243, 1244, 1245, 1246, 1247, 1248, 1249, 1250, 1251, 1252, 1253, 1254, 1255, 1256, 1257, 1258, 1259, 1260, 1261, 1262, 1263, 1264, 1265, 1266, 1267, 1268, 1269, 1270, 1271, 1272, 1273, 1274, 1275, 1276, 1277, 1278, 1279, 1280, 1281, 1282, 1283, 1284, 1285, 1286, 1287, 1288, 1289, 1290, 1291, 1292, 1293, 1294, 1295, 1296, 1297, 1298, 1299, 1300, 1301, 1302, 1303, 1304, 1305, 1306, 1307, 1308, 1309, 1310, 1311, 1312, 1313, 1314, 1315, 1316, 1317, 1318, 1319, 1320, 1321, 1322, 1323, 1324, 1325, 1326, 1327, 1328, 1329, 1330, 1331, 1332, 1333, 1334, 1335, 1336, 1337, 1338, 1339, 1340, 1341, 1342, 1343, 1344, 1345, 1346, 1347, 1348, 1349, 1350, 1351, 1352, 1353, 1354, 1355, 1356, 1357, 1358, 1359, 1360, 1361, 1362, 1363, 1364, 1365, 1366, 1367, 1368, 1369],
      "AcquisitionTime": ["114025.447500", "114027.447500", "114029.447500", "114031.447500", "114033.447500", "114035.447500", "114037.447500", "114039.447500", "114041.447500", "114043.447500", "114045.447500", "114047.447500", "114049.447500", "114051.447500", "114053.447500", "114055.447500", "114057.447500", "114059.447500", "114101.447500", "114103.447500", "114105.447500", "114107.447500", "114109.447500", "114111.447500", "114113.447500", "114115.447500", "114117.447500", "114119.447500", "114121.447500", "114123.447500", "114125.447500", "114127.447500", "114129.447500", "114131.447500", "114133.447500", "114135.447500", "114137.447500", "114139.447500", "114141.447500", "114143.447500", "114145.447500", "114147.447500", "114149.447500", "114151.447500", "114153.447500", "114155.447500", "114157.447500", "114159.447500", "114201.447500", "114203.447500", "114205.447500", "114207.447500", "114209.447500", "114211.447500", "114213.447500", "114215.447500", "114217.447500", "114219.447500", "114221.447500", "114223.447500", "114225.447500", "114227.447500", "114229.447500", "114231.447500", "114233.447500", "114235.447500", "114237.447500", "114239.447500", "114241.447500", "114243.447500", "114245.447500", "114247.447500", "114249.447500", "114251.447500", "114253.447500", "114255.447500", "114257.447500", "114259.447500", "114301.447500", "114303.447500", "114305.447500", "114307.447500", "114309.447500", "114311.447500", "114313.447500", "114315.447500", "114317.447500", "114319.447500", "114321.447500", "114323.447500", "114325.447500", "114327.447500", "114329.447500", "114331.447500", "114333.447500", "114335.447500", "114337.447500", "114339.447500", "114341.447500", "114343.447500", "114345.447500", "114347.447500", "114349.447500", "114351.447500", "114353.447500", "114355.447500", "114357.447500", "114359.447500", "114401.447500", "114403.447500", "114405.447500", "114407.447500", "114409.447500", "114411.447500", "114413.447500", "114415.447500", "114417.447500", "114419.447500", "114421.447500", "114423.447500", "114425.447500", "114427.447500", "114429.447500", "114431.447500", "114433.447500", "114435.447500", "114437.447500", "114439.447500", "114441.447500", "114443.447500", "114445.447500", "114447.447500", "114449.447500", "114451.447500", "114453.447500", "114455.447500", "114457.447500", "114459.447500", "114501.447500", "114503.447500", "114505.447500", "114507.447500", "114509.447500", "114511.447500", "114513.447500", "114515.447500", "114517.447500", "114519.447500", "114521.447500", "114523.447500", "114525.447500", "114527.447500", "114529.447500", "114531.447500", "114533.447500", "114535.447500", "114537.447500", "114539.447500", "114541.447500", "114543.447500", "114545.447500", "114547.447500", "114549.447500", "114551.447500", "114553.447500", "114555.447500", "114557.447500", "114559.447500", "114601.447500", "114603.447500", "114605.447500", "114607.447500", "114609.447500", "114611.447500", "114613.447500", "114615.447500", "114617.447500", "114619.447500", "114621.447500", "114623.447500", "114625.447500", "114627.447500", "114629.447500", "114631.447500", "114633.447500", "114635.447500", "114637.447500", "114639.447500", "114641.447500", "114643.447500", "114645.447500", "114647.447500", "114649.447500", "114651.447500", "114653.447500", "114655.447500", "114657.447500", "114659.447500", "114701.447500", "114703.447500", "114705.447500", "114707.447500", "114709.447500", "114711.447500", "114713.447500", "114715.447500", "114717.447500", "114719.447500", "114721.447500", "114723.447500", "114725.447500", "114727.447500", "114729.447500", "114731.447500", "114733.447500", "114735.447500", "114737.447500", "114739.447500", "114741.447500", "114743.447500", "114745.447500", "114747.447500", "114749.447500", "114751.447500", "114753.447500", "114755.447500", "114757.447500", "114759.447500", "114801.447500", "114803.447500", "114805.447500", "114807.447500", "114809.447500", "114811.447500", "114813.447500", "114815.447500", "114817.447500", "114819.447500", "114821.447500", "114823.447500", "114825.447500", "114827.447500", "114829.447500", "114831.447500", "114833.447500", "114835.447500", "114837.447500", "114839.447500", "114841.447500", "114843.447500", "114845.447500", "114847.447500", "114849.447500", "114851.447500", "114853.447500", "114855.447500", "114857.447500", "114859.447500", "114901.447500", "114903.447500", "114905.447500", "114907.447500", "114909.447500", "114911.447500", "114913.447500", "114915.447500", "114917.447500", "114919.447500", "114921.447500", "114923.447500", "114925.447500", "114927.447500", "114929.447500", "114931.447500", "114933.447500", "114935.447500", "114937.447500", "114939.447500", "114941.447500", "114943.447500", "114945.447500", "114947.447500", "114949.447500", "114951.447500", "114953.447500", "114955.447500", "114957.447500", "114959.447500", "115001.447500", "115003.447500", "115005.447500", "115007.447500", "115009.447500", "115011.447500", "115013.447500", "115015.447500", "115017.447500", "115019.447500", "115021.447500", "115023.447500", "115025.447500", "115027.447500", "115029.447500", "115031.447500", "115033.447500", "115035.447500", "115037.447500", "115039.447500", "115041.447500", "115043.447500", "115045.447500", "115047.447500", "115049.447500", "115051.447500", "115053.447500", "115055.447500", "115057.447500", "115059.447500", "115101.447500", "115103.447500", "115105.447500", "115107.447500", "115109.447500", "115111.447500", "115113.447500", "115115.447500", "115117.447500", "115119.447500", "115121.447500", "115123.447500", "115125.447500", "115127.447500", "115129.447500", "115131.447500", "115133.447500", "115135.447500", "115137.447500", "115139.447500", "115141.447500", "115143.447500", "115145.447500", "115147.447500", "115149.447500", "115151.447500", "115153.447500", "115155.447500", "115157.447500", "115159.447500", "115201.447500", "115203.447500", "115205.447500", "115207.447500", "115209.447500", "115211.447500", "115213.447500", "115215.447500", "115217.447500", "115219.447500", "115221.447500", "115223.447500", "115225.447500", "115227.447500", "115229.447500", "115231.447500", "115233.447500", "115235.447500", "115237.447500", "115239.447500", "115241.447500", "115243.447500", "115245.447500", "115247.447500", "115249.447500", "115251.447500", "115253.447500", "115255.447500", "115257.447500", "115259.447500", "115301.447500", "115303.447500", "115305.447500", "115307.447500", "115309.447500", "115311.447500", "115313.447500", "115315.447500", "115317.447500", "115319.447500", "115321.447500", "115323.447500", "115325.447500", "115327.447500", "115329.447500", "115331.447500", "115333.447500", "115335.447500", "115337.447500", "115339.447500", "115341.447500", "115343.447500", "115345.447500", "115347.447500", "115349.447500", "115351.447500", "115353.447500", "115355.447500", "115357.447500", "115359.447500", "115401.447500", "115403.447500", "115405.447500", "115407.447500", "115409.447500", "115411.447500", "115413.447500", "115415.447500", "115417.447500", "115419.447500", "115421.447500", "115423.447500", "115425.447500", "115427.447500", "115429.447500", "115431.447500", "115433.447500", "115435.447500", "115437.447500", "115439.447500", "115441.447500", "115443.447500", "115445.447500", "115447.447500", "115449.447500", "115451.447500", "115453.447500", "115455.447500", "115457.447500", "115459.447500", "115501.447500", "115503.447500", "115505.447500", "115507.447500", "115509.447500", "115511.447500", "115513.447500", "115515.447500", "115517.447500", "115519.447500", "115521.447500", "115523.447500", "115525.447500", "115527.447500", "115529.447500", "115531.447500", "115533.447500", "115535.447500", "115537.447500", "115539.447500", "115541.447500", "115543.447500", "115545.447500", "115547.447500", "115549.447500", "115551.447500", "115553.447500", "115555.447500", "115557.447500", "115559.447500", "115601.447500", "115603.447500", "115605.447500", "115607.447500", "115609.447500", "115611.447500", "115613.447500", "115615.447500", "115617.447500", "115619.447500", "115621.447500", "115623.447500", "115625.447500", "115627.447500", "115629.447500", "115631.447500", "115633.447500", "115635.447500", "115637.447500", "115639.447500", "115641.447500", "115643.447500", "115645.447500", "115647.447500", "115649.447500", "115651.447500", "115653.447500", "115655.447500", "115657.447500", "115659.447500", "115701.447500", "115703.447500", "115705.447500", "115707.447500", "115709.447500", "115711.447500", "115713.447500", "115715.447500", "115717.447500", "115719.447500", "115721.447500", "115723.447500", "115725.447500", "115727.447500", "115729.447500", "115731.447500", "115733.447500", "115735.447500", "115737.447500", "115739.447500", "115741.447500", "115743.447500", "115745.447500", "115747.447500", "115749.447500", "115751.447500", "115753.447500", "115755.447500", "115757.447500", "115759.447500", "115801.447500", "115803.447500", "115805.447500", "115807.447500", "115809.447500", "115811.447500", "115813.447500", "115815.447500", "115817.447500", "115819.447500", "115821.447500", "115823.447500", "115825.447500", "115827.447500", "115829.447500", "115831.447500", "115833.447500", "115835.447500", "115837.447500", "115839.447500", "115841.447500", "115843.447500", "115845.447500", "115847.447500", "115849.447500", "115851.447500", "115853.447500", "115855.447500", "115857.447500", "115859.447500", "115901.447500", "115903.447500", "115905.447500", "115907.447500", "115909.447500", "115911.447500", "115913.447500", "115915.447500", "115917.447500", "115919.447500", "115921.447500", "115923.447500", "115925.447500", "115927.447500", "115929.447500", "115931.447500", "115933.447500", "115935.447500", "115937.447500", "115939.447500", "115941.447500", "115943.447500", "115945.447500", "115947.447500", "115949.447500", "115951.447500", "115953.447500", "115955.447500", "115957.447500", "115959.447500", "120001.447500", "120003.447500", "120005.447500", "120007.447500", "120009.447500", "120011.447500", "120013.447500", "120015.447500", "120017.447500", "120019.447500", "120021.447500", "120023.447500", "120025.447500", "120027.447500", "120029.447500", "120031.447500", "120033.447500", "120035.447500", "120037.447500", "120039.447500", "120041.447500", "120043.447500", "120045.447500", "120047.447500", "120049.447500", "120051.447500", "120053.447500", "120055.447500", "120057.447500", "120059.447500", "120101.447500", "120103.447500", "120105.447500", "120107.447500", "120109.447500", "120111.447500", "120113.447500", "120115.447500", "120117.447500", "120119.447500", "120121.447500", "120123.447500", "120125.447500", "120127.447500", "120129.447500", "120131.447500", "120133.447500", "120135.447500", "120137.447500", "120139.447500", "120141.447500", "120143.447500", "120145.447500", "120147.447500", "120149.447500", "120151.447500", "120153.447500", "120155.447500", "120157.447500", "120159.447500", "120201.447500", "120203.447500", "120205.447500", "120207.447500", "120209.447500", "120211.447500", "120213.447500", "120215.447500", "120217.447500", "120219.447500", "120221.447500", "120223.447500", "120225.447500", "120227.447500", "120229.447500", "120231.447500", "120233.447500", "120235.447500", "120237.447500", "120239.447500", "120241.447500", "120243.447500", "120245.447500", "120247.447500", "120249.447500", "120251.447500", "120253.447500", "120255.447500", "120257.447500", "120259.447500", "120301.447500", "120303.447500", "120305.447500", "120307.447500", "120309.447500", "120311.447500", "120313.447500", "120315.447500", "120317.447500", "120319.447500", "120321.447500", "120323.447500", "120325.447500", "120327.447500", "120329.447500", "120331.447500", "120333.447500", "120335.447500", "120337.447500", "120339.447500", "120341.447500", "120343.447500", "120345.447500", "120347.447500", "120349.447500", "120351.447500", "120353.447500", "120355.447500", "120357.447500", "120359.447500", "120401.447500", "120403.447500", "120405.447500", "120407.447500", "120409.447500", "120411.447500", "120413.447500", "120415.447500", "120417.447500", "120419.447500", "120421.447500", "120423.447500", "120425.447500", "120427.447500", "120429.447500", "120431.447500", "120433.447500", "120435.447500", "120437.447500", "120439.447500", "120441.447500", "120443.447500", "120445.447500", "120447.447500", "120449.447500", "120451.447500", "120453.447500", "120455.447500", "120457.447500", "120459.447500", "120501.447500", "120503.447500", "120505.447500", "120507.447500", "120509.447500", "120511.447500", "120513.447500", "120515.447500", "120517.447500", "120519.447500", "120521.447500", "120523.447500", "120525.447500", "120527.447500", "120529.447500", "120531.447500", "120533.447500", "120535.447500", "120537.447500", "120539.447500", "120541.447500", "120543.447500", "120545.447500", "120547.447500", "120549.447500", "120551.447500", "120553.447500", "120555.447500", "120557.447500", "120559.447500", "120601.447500", "120603.447500", "120605.447500", "120607.447500", "120609.447500", "120611.447500", "120613.447500", "120615.447500", "120617.447500", "120619.447500", "120621.447500", "120623.447500", "120625.447500", "120627.447500", "120629.447500", "120631.447500", "120633.447500", "120635.447500", "120637.447500", "120639.447500", "120641.447500", "120643.447500", "120645.447500", "120647.447500", "120649.447500", "120651.447500", "120653.447500", "120655.447500", "120657.447500", "120659.447500", "120701.447500", "120703.447500", "120705.447500", "120707.447500", "120709.447500", "120711.447500", "120713.447500", "120715.447500", "120717.447500", "120719.447500", "120721.447500", "120723.447500", "120725.447500", "120727.447500", "120729.447500", "120731.447500", "120733.447500", "120735.447500", "120737.447500", "120739.447500", "120741.447500", "120743.447500", "120745.447500", "120747.447500", "120749.447500", "120751.447500", "120753.447500", "120755.447500", "120757.447500", "120759.447500", "120801.447500", "120803.447500", "120805.447500", "120807.447500", "120809.447500", "120811.447500", "120813.447500", "120815.447500", "120817.447500", "120819.447500", "120821.447500", "120823.447500", "120825.447500", "120827.447500", "120829.447500", "120831.447500", "120833.447500", "120835.447500", "120837.447500", "120839.447500", "120841.447500", "120843.447500", "120845.447500", "120847.447500", "120849.447500", "120851.447500", "120853.447500", "120855.447500", "120857.447500", "120859.447500", "120901.447500", "120903.447500", "120905.447500", "120907.447500", "120909.447500", "120911.447500", "120913.447500", "120915.447500", "120917.447500", "120919.447500", "120921.447500", "120923.447500", "120925.447500", "120927.447500", "120929.447500", "120931.447500", "120933.447500", "120935.447500", "120937.447500", "120939.447500", "120941.447500", "120943.447500", "120945.447500", "120947.447500", "120949.447500", "120951.447500", "120953.447500", "120955.447500", "120957.447500", "120959.447500", "121001.447500", "121003.447500", "121005.447500", "121007.447500", "121009.447500", "121011.447500", "121013.447500", "121015.447500", "121017.447500", "121019.447500", "121021.447500", "121023.447500", "121025.447500", "121027.447500", "121029.447500", "121031.447500", "121033.447500", "121035.447500", "121037.447500", "121039.447500", "121041.447500", "121043.447500", "121045.447500", "121047.447500", "121049.447500", "121051.447500", "121053.447500", "121055.447500", "121057.447500", "121059.447500", "121101.447500", "121103.447500", "121105.447500", "121107.447500", "121109.447500", "121111.447500", "121113.447500", "121115.447500", "121117.447500", "121119.447500", "121121.447500", "121123.447500", "121125.447500", "121127.447500", "121129.447500", "121131.447500", "121133.447500", "121135.447500", "121137.447500", "121139.447500", "121141.447500", "121143.447500", "121145.447500", "121147.447500", "121149.447500", "121151.447500", "121153.447500", "121155.447500", "121157.447500", "121159.447500", "121201.447500", "121203.447500", "121205.447500", "121207.447500", "121209.447500", "121211.447500", "121213.447500", "121215.447500", "121217.447500", "121219.447500", "121221.447500", "121223.447500", "121225.447500", "121227.447500", "121229.447500", "121231.447500", "121233.447500", "121235.447500", "121237.447500", "121239.447500", "121241.447500", "121243.447500", "121245.447500", "121247.447500", "121249.447500", "121251.447500", "121253.447500", "121255.447500", "121257.447500", "121259.447500", "121301.447500", "121303.447500", "121305.447500", "121307.447500", "121309.447500", "121311.447500", "121313.447500", "121315.447500", "121317.447500", "121319.447500", "121321.447500", "121323.447500", "121325.447500", "121327.447500", "121329.447500", "121331.447500", "121333.447500", "121335.447500", "121337.447500", "121339.447500", "121341.447500", "121343.447500", "121345.447500", "121347.447500", "121349.447500", "121351.447500", "121353.447500", "121355.447500", "121357.447500", "121359.447500", "121401.447500", "121403.447500", "121405.447500", "121407.447500", "121409.447500", "121411.447500", "121413.447500", "121415.447500", "121417.447500", "121419.447500", "121421.447500", "121423.447500", "121425.447500", "121427.447500", "121429.447500", "121431.447500", "121433.447500", "121435.447500", "121437.447500", "121439.447500", "121441.447500", "121443.447500", "121445.447500", "121447.447500", "121449.447500", "121451.447500", "121453.447500", "121455.447500", "121457.447500", "121459.447500", "121501.447500", "121503.447500", "121505.447500", "121507.447500", "121509.447500", "121511.447500", "121513.447500", "121515.447500", "121517.447500", "121519.447500", "121521.447500", "121523.447500", "121525.447500", "121527.447500", "121529.447500", "121531.447500", "121533.447500", "121535.447500", "121537.447500", "121539.447500", "121541.447500", "121543.447500", "121545.447500", "121547.447500", "121549.447