{
  "AcquisitionMatrixPE": 80,
  "AcquisitionNumber": 1,
  "AcquisitionTime": "17:18:52.015000",
  "BandwidthPerPixelPhaseEncode": 51.02,
  "BaseResolution": 80,
  "BodyPartExamined": "BRAIN",
  "ConsistencyInfo": "N4_VE11C_LATEST_20160120",
  "ConversionSoftware": "dcm2niix",
  "ConversionSoftwareVersion": "v1.0.20170923 (OpenJPEG build) GCC6.3.0",
  "DerivedVendorReportedEchoSpacing": 0.000490004,
  "DeviceSerialNumber": "66112",
  "DwellTime": 2.2e-06,
  "EchoTime": 0.025,
  "EchoTrainLength": 39,
  "EffectiveEchoSpacing": 0.000245002,
  "FlipAngle": 75,
  "ImageType": [
    "ORIGINAL",
    "PRIMARY",
    "FMRI",
    "NONE",
    "ND",
    "NORM",
    "MOSAIC"
],
  "InstitutionAddress": "Maynard_3_Hanover_NH_US_03755",
  "InstitutionName": "Dartmouth_College_-_PBS",
  "MagneticFieldStrength": 3,
  "Manufacturer": "Siemens",
  "ManufacturersModelName": "Prisma",
  "Modality": "MR",
  "ParallelReductionFactorInPlane": 2,
  "PartialFourier": 1,
  "PercentPhaseFOV": 100,
  "PhaseEncodingDirection": "j-",
  "PhaseEncodingSteps": 79,
  "PhaseResolution": 1,
  "ProcedureStepDescription": "Chang_Chang_1039_fnlpilot",
  "ProtocolName": "func_run-01_task-movie",
  "PulseSequenceDetails": "%SiemensSeq%_ep2d_bold",
  "ReceiveCoilActiveElements": "HEA;HEP",
  "ReceiveCoilName": "Head_32",
  "ReconMatrixPE": 80,
  "RepetitionTime": 2,
  "ScanOptions": "FS",
  "ScanningSequence": "EP",
  "SequenceName": "_epfid2d1_80",
  "SequenceVariant": "SK",
  "SeriesDescription": "func_run-01_task-movie",
  "SliceTiming": [0.99, 0, 1.0375, 0.0475, 1.0875, 0.0975, 1.1375, 0.1475, 1.1875, 0.1975, 1.2375, 0.2475, 1.285, 0.295, 1.335, 0.345, 1.385, 0.395, 1.435, 0.445, 1.485, 0.495, 1.5325, 0.5425, 1.5825, 0.5925, 1.6325, 0.6425, 1.6825, 0.6925, 1.73, 0.7425, 1.78, 0.79, 1.83, 0.84, 1.88, 0.89, 1.93, 0.94],
  "SoftwareVersions": "syngo_MR_E11",
  "StationName": "AWP66112",
  "TaskName": "movie",
  "TotalReadoutTime": 0.0193552,
  "dcmmeta_affine": [
    [-2.9931840896606445, 0.07106103003025055, 0.18920786678791046, 116.06124114990234],
    [0.07292979955673218, 2.998988389968872, 0.02738313190639019, -115.68173217773438],
    [0.1884954422712326, -0.031920548528432846, 2.9939022064208984, -56.98828887939453],
    [0.0, 0.0, 0.0, 1.0]
],
  "dcmmeta_reorient_transform": [
    [0.0, -1.0, 0.0, 79.0],
    [1.0, 0.0, 0.0, 0.0],
    [0.0, 0.0, 1.0, 0.0],
    [0.0, 0.0, 0.0, 1.0]
],
  "dcmmeta_shape": [80, 80, 40, 1369],
  "dcmmeta_slice_dim": 2,
  "dcmmeta_version": 0.6,
  "global": {
    "const": {
      "AccessionNumber": "A001245",
      "AcquisitionMatrix": [80, 0, 0, 80],
      "AngioFlag": "N",
      "BitsAllocated": 16,
      "BitsStored": 12,
      "BodyPartExamined": "BRAIN",
      "Columns": 560,
      "EchoNumbers": 1,
      "EchoTime": 25.0,
      "EchoTrainLength": 39,
      "FlipAngle": 75.0,
      "HighBit": 11,
      "ImageOrientationPatient": [0.99772801425721, -0.0243099328296, 0.06283181305826, 0.02368701006326, 0.9996627991783, 0.01064018295249],
      "ImagePositionPatient": [-857.09388300672, -823.49241212362, -112.40984746812],
      "ImageType": [
        "ORIGINAL",
        "PRIMARY",
        "FMRI",
        "NONE",
        "ND",
        "NORM",
        "MOSAIC"
],
      "ImagedNucleus": "1H",
      "ImagingFrequency": 123.252285,
      "InPlanePhaseEncodingDirection": "COL",
      "MRAcquisitionType": "2D",
      "MagneticFieldStrength": 3.0,
      "Manufacturer": "SIEMENS",
      "ManufacturerModelName": "Prisma",
      "Modality": "MR",
      "NumberOfAverages": 1.0,
      "NumberOfPhaseEncodingSteps": 79,
      "PercentPhaseFieldOfView": 100.0,
      "PercentSampling": 100.0,
      "PerformedProcedureStepStartTime": "170249.588000",
      "PhotometricInterpretation": "MONOCHROME2",
      "PixelBandwidth": 2840.0,
      "PixelRepresentation": 0,
      "PixelSpacing": [3.0, 3.0],
      "PositionReferenceIndicator": "",
      "ProtocolName": "func_run-01_task-movie",
      "RepetitionTime": 2000.0,
      "Rows": 560,
      "SAR": 0.10977654044738,
      "SamplesPerPixel": 1,
      "ScanOptions": "FS",
      "ScanningSequence": "EP",
      "SequenceName": "*epfid2d1_80",
      "SequenceVariant": "SK",
      "SeriesDescription": "func_run-01_task-movie",
      "SeriesNumber": 6,
      "SeriesTime": "171853.661000",
      "SliceLocation": -50.608462476382,
      "SliceThickness": 3.0,
      "SmallestImagePixelValue": 0,
      "SoftwareVersions": "syngo MR E11",
      "SpacingBetweenSlices": 3.0000000277011,
      "SpecificCharacterSet": "ISO_IR 100",
      "StudyID": "1",
      "StudyTime": "170249.539000",
      "TransmitCoilName": "Body",
      "VariableFlipAngleFlag": "N",
      "WindowCenterWidthExplanation": "Algo1",
      "dBdt": 0.0},
    "slices": {}
  },
  "time": {
    "samples": {
      "AcquisitionNumber": [1, 2, 3, 4, 5, 6, 7, 8, 9, 10, 11, 12, 13, 14, 15, 16, 17, 18, 19, 20, 21, 22, 23, 24, 25, 26, 27, 28, 29, 30, 31, 32, 33, 34, 35, 36, 37, 38, 39, 40, 41, 42, 43, 44, 45, 46, 47, 48, 49, 50, 51, 52, 53, 54, 55, 56, 57, 58, 59, 60, 61, 62, 63, 64, 65, 66, 67, 68, 69, 70, 71, 72, 73, 74, 75, 76, 77, 78, 79, 80, 81, 82, 83, 84, 85, 86, 87, 88, 89, 90, 91, 92, 93, 94, 95, 96, 97, 98, 99, 100, 101, 102, 103, 104, 105, 106, 107, 108, 109, 110, 111, 112, 113, 114, 115, 116, 117, 118, 119, 120, 121, 122, 123, 124, 125, 126, 127, 128, 129, 130, 131, 132, 133, 134, 135, 136, 137, 138, 139, 140, 141, 142, 143, 144, 145, 146, 147, 148, 149, 150, 151, 152, 153, 154, 155, 156, 157, 158, 159, 160, 161, 162, 163, 164, 165, 166, 167, 168, 169, 170, 171, 172, 173, 174, 175, 176, 177, 178, 179, 180, 181, 182, 183, 184, 185, 186, 187, 188, 189, 190, 191, 192, 193, 194, 195, 196, 197, 198, 199, 200, 201, 202, 203, 204, 205, 206, 207, 208, 209, 210, 211, 212, 213, 214, 215, 216, 217, 218, 219, 220, 221, 222, 223, 224, 225, 226, 227, 228, 229, 230, 231, 232, 233, 234, 235, 236, 237, 238, 239, 240, 241, 242, 243, 244, 245, 246, 247, 248, 249, 250, 251, 252, 253, 254, 255, 256, 257, 258, 259, 260, 261, 262, 263, 264, 265, 266, 267, 268, 269, 270, 271, 272, 273, 274, 275, 276, 277, 278, 279, 280, 281, 282, 283, 284, 285, 286, 287, 288, 289, 290, 291, 292, 293, 294, 295, 296, 297, 298, 299, 300, 301, 302, 303, 304, 305, 306, 307, 308, 309, 310, 311, 312, 313, 314, 315, 316, 317, 318, 319, 320, 321, 322, 323, 324, 325, 326, 327, 328, 329, 330, 331, 332, 333, 334, 335, 336, 337, 338, 339, 340, 341, 342, 343, 344, 345, 346, 347, 348, 349, 350, 351, 352, 353, 354, 355, 356, 357, 358, 359, 360, 361, 362, 363, 364, 365, 366, 367, 368, 369, 370, 371, 372, 373, 374, 375, 376, 377, 378, 379, 380, 381, 382, 383, 384, 385, 386, 387, 388, 389, 390, 391, 392, 393, 394, 395, 396, 397, 398, 399, 400, 401, 402, 403, 404, 405, 406, 407, 408, 409, 410, 411, 412, 413, 414, 415, 416, 417, 418, 419, 420, 421, 422, 423, 424, 425, 426, 427, 428, 429, 430, 431, 432, 433, 434, 435, 436, 437, 438, 439, 440, 441, 442, 443, 444, 445, 446, 447, 448, 449, 450, 451, 452, 453, 454, 455, 456, 457, 458, 459, 460, 461, 462, 463, 464, 465, 466, 467, 468, 469, 470, 471, 472, 473, 474, 475, 476, 477, 478, 479, 480, 481, 482, 483, 484, 485, 486, 487, 488, 489, 490, 491, 492, 493, 494, 495, 496, 497, 498, 499, 500, 501, 502, 503, 504, 505, 506, 507, 508, 509, 510, 511, 512, 513, 514, 515, 516, 517, 518, 519, 520, 521, 522, 523, 524, 525, 526, 527, 528, 529, 530, 531, 532, 533, 534, 535, 536, 537, 538, 539, 540, 541, 542, 543, 544, 545, 546, 547, 548, 549, 550, 551, 552, 553, 554, 555, 556, 557, 558, 559, 560, 561, 562, 563, 564, 565, 566, 567, 568, 569, 570, 571, 572, 573, 574, 575, 576, 577, 578, 579, 580, 581, 582, 583, 584, 585, 586, 587, 588, 589, 590, 591, 592, 593, 594, 595, 596, 597, 598, 599, 600, 601, 602, 603, 604, 605, 606, 607, 608, 609, 610, 611, 612, 613, 614, 615, 616, 617, 618, 619, 620, 621, 622, 623, 624, 625, 626, 627, 628, 629, 630, 631, 632, 633, 634, 635, 636, 637, 638, 639, 640, 641, 642, 643, 644, 645, 646, 647, 648, 649, 650, 651, 652, 653, 654, 655, 656, 657, 658, 659, 660, 661, 662, 663, 664, 665, 666, 667, 668, 669, 670, 671, 672, 673, 674, 675, 676, 677, 678, 679, 680, 681, 682, 683, 684, 685, 686, 687, 688, 689, 690, 691, 692, 693, 694, 695, 696, 697, 698, 699, 700, 701, 702, 703, 704, 705, 706, 707, 708, 709, 710, 711, 712, 713, 714, 715, 716, 717, 718, 719, 720, 721, 722, 723, 724, 725, 726, 727, 728, 729, 730, 731, 732, 733, 734, 735, 736, 737, 738, 739, 740, 741, 742, 743, 744, 745, 746, 747, 748, 749, 750, 751, 752, 753, 754, 755, 756, 757, 758, 759, 760, 761, 762, 763, 764, 765, 766, 767, 768, 769, 770, 771, 772, 773, 774, 775, 776, 777, 778, 779, 780, 781, 782, 783, 784, 785, 786, 787, 788, 789, 790, 791, 792, 793, 794, 795, 796, 797, 798, 799, 800, 801, 802, 803, 804, 805, 806, 807, 808, 809, 810, 811, 812, 813, 814, 815, 816, 817, 818, 819, 820, 821, 822, 823, 824, 825, 826, 827, 828, 829, 830, 831, 832, 833, 834, 835, 836, 837, 838, 839, 840, 841, 842, 843, 844, 845, 846, 847, 848, 849, 850, 851, 852, 853, 854, 855, 856, 857, 858, 859, 860, 861, 862, 863, 864, 865, 866, 867, 868, 869, 870, 871, 872, 873, 874, 875, 876, 877, 878, 879, 880, 881, 882, 883, 884, 885, 886, 887, 888, 889, 890, 891, 892, 893, 894, 895, 896, 897, 898, 899, 900, 901, 902, 903, 904, 905, 906, 907, 908, 909, 910, 911, 912, 913, 914, 915, 916, 917, 918, 919, 920, 921, 922, 923, 924, 925, 926, 927, 928, 929, 930, 931, 932, 933, 934, 935, 936, 937, 938, 939, 940, 941, 942, 943, 944, 945, 946, 947, 948, 949, 950, 951, 952, 953, 954, 955, 956, 957, 958, 959, 960, 961, 962, 963, 964, 965, 966, 967, 968, 969, 970, 971, 972, 973, 974, 975, 976, 977, 978, 979, 980, 981, 982, 983, 984, 985, 986, 987, 988, 989, 990, 991, 992, 993, 994, 995, 996, 997, 998, 999, 1000, 1001, 1002, 1003, 1004, 1005, 1006, 1007, 1008, 1009, 1010, 1011, 1012, 1013, 1014, 1015, 1016, 1017, 1018, 1019, 1020, 1021, 1022, 1023, 1024, 1025, 1026, 1027, 1028, 1029, 1030, 1031, 1032, 1033, 1034, 1035, 1036, 1037, 1038, 1039, 1040, 1041, 1042, 1043, 1044, 1045, 1046, 1047, 1048, 1049, 1050, 1051, 1052, 1053, 1054, 1055, 1056, 1057, 1058, 1059, 1060, 1061, 1062, 1063, 1064, 1065, 1066, 1067, 1068, 1069, 1070, 1071, 1072, 1073, 1074, 1075, 1076, 1077, 1078, 1079, 1080, 1081, 1082, 1083, 1084, 1085, 1086, 1087, 1088, 1089, 1090, 1091, 1092, 1093, 1094, 1095, 1096, 1097, 1098, 1099, 1100, 1101, 1102, 1103, 1104, 1105, 1106, 1107, 1108, 1109, 1110, 1111, 1112, 1113, 1114, 1115, 1116, 1117, 1118, 1119, 1120, 1121, 1122, 1123, 1124, 1125, 1126, 1127, 1128, 1129, 1130, 1131, 1132, 1133, 1134, 1135, 1136, 1137, 1138, 1139, 1140, 1141, 1142, 1143, 1144, 1145, 1146, 1147, 1148, 1149, 1150, 1151, 1152, 1153, 1154, 1155, 1156, 1157, 1158, 1159, 1160, 1161, 1162, 1163, 1164, 1165, 1166, 1167, 1168, 1169, 1170, 1171, 1172, 1173, 1174, 1175, 1176, 1177, 1178, 1179, 1180, 1181, 1182, 1183, 1184, 1185, 1186, 1187, 1188, 1189, 1190, 1191, 1192, 1193, 1194, 1195, 1196, 1197, 1198, 1199, 1200, 1201, 1202, 1203, 1204, 1205, 1206, 1207, 1208, 1209, 1210, 1211, 1212, 1213, 1214, 1215, 1216, 1217, 1218, 1219, 1220, 1221, 1222, 1223, 1224, 1225, 1226, 1227, 1228, 1229, 1230, 1231, 1232, 1233, 1234, 1235, 1236, 1237, 1238, 1239, 1240, 1241, 1242, 1243, 1244, 1245, 1246, 1247, 1248, 1249, 1250, 1251, 1252, 1253, 1254, 1255, 1256, 1257, 1258, 1259, 1260, 1261, 1262, 1263, 1264, 1265, 1266, 1267, 1268, 1269, 1270, 1271, 1272, 1273, 1274, 1275, 1276, 1277, 1278, 1279, 1280, 1281, 1282, 1283, 1284, 1285, 1286, 1287, 1288, 1289, 1290, 1291, 1292, 1293, 1294, 1295, 1296, 1297, 1298, 1299, 1300, 1301, 1302, 1303, 1304, 1305, 1306, 1307, 1308, 1309, 1310, 1311, 1312, 1313, 1314, 1315, 1316, 1317, 1318, 1319, 1320, 1321, 1322, 1323, 1324, 1325, 1326, 1327, 1328, 1329, 1330, 1331, 1332, 1333, 1334, 1335, 1336, 1337, 1338, 1339, 1340, 1341, 1342, 1343, 1344, 1345, 1346, 1347, 1348, 1349, 1350, 1351, 1352, 1353, 1354, 1355, 1356, 1357, 1358, 1359, 1360, 1361, 1362, 1363, 1364, 1365, 1366, 1367, 1368, 1369],
      "AcquisitionTime": ["171852.015000", "171854.015000", "171856.015000", "171858.015000", "171900.015000", "171902.015000", "171904.015000", "171906.015000", "171908.015000", "171910.015000", "171912.015000", "171914.015000", "171916.015000", "171918.015000", "171920.015000", "171922.015000", "171924.015000", "171926.015000", "171928.015000", "171930.015000", "171932.015000", "171934.015000", "171936.015000", "171938.015000", "171940.015000", "171942.015000", "171944.015000", "171946.015000", "171948.015000", "171950.015000", "171952.015000", "171954.015000", "171956.015000", "171958.015000", "172000.015000", "172002.015000", "172004.015000", "172006.015000", "172008.015000", "172010.015000", "172012.015000", "172014.015000", "172016.015000", "172018.015000", "172020.015000", "172022.015000", "172024.015000", "172026.015000", "172028.015000", "172030.015000", "172032.015000", "172034.015000", "172036.015000", "172038.015000", "172040.015000", "172042.015000", "172044.015000", "172046.015000", "172048.015000", "172050.015000", "172052.015000", "172054.015000", "172056.015000", "172058.015000", "172100.015000", "172102.015000", "172104.015000", "172106.015000", "172108.015000", "172110.015000", "172112.015000", "172114.015000", "172116.015000", "172118.015000", "172120.015000", "172122.015000", "172124.015000", "172126.015000", "172128.015000", "172130.015000", "172132.015000", "172134.015000", "172136.015000", "172138.015000", "172140.015000", "172142.015000", "172144.015000", "172146.015000", "172148.015000", "172150.015000", "172152.015000", "172154.015000", "172156.015000", "172158.015000", "172200.015000", "172202.015000", "172204.015000", "172206.015000", "172208.015000", "172210.015000", "172212.015000", "172214.015000", "172216.015000", "172218.015000", "172220.015000", "172222.015000", "172224.015000", "172226.015000", "172228.015000", "172230.015000", "172232.015000", "172234.015000", "172236.015000", "172238.015000", "172240.015000", "172242.015000", "172244.015000", "172246.015000", "172248.015000", "172250.015000", "172252.015000", "172254.015000", "172256.015000", "172258.015000", "172300.015000", "172302.015000", "172304.015000", "172306.015000", "172308.015000", "172310.015000", "172312.015000", "172314.015000", "172316.015000", "172318.015000", "172320.015000", "172322.015000", "172324.015000", "172326.015000", "172328.015000", "172330.015000", "172332.015000", "172334.015000", "172336.015000", "172338.015000", "172340.015000", "172342.015000", "172344.015000", "172346.015000", "172348.015000", "172350.015000", "172352.015000", "172354.015000", "172356.015000", "172358.015000", "172400.015000", "172402.015000", "172404.015000", "172406.015000", "172408.015000", "172410.015000", "172412.015000", "172414.015000", "172416.015000", "172418.015000", "172420.015000", "172422.015000", "172424.015000", "172426.015000", "172428.015000", "172430.015000", "172432.015000", "172434.015000", "172436.015000", "172438.015000", "172440.015000", "172442.015000", "172444.015000", "172446.015000", "172448.015000", "172450.015000", "172452.015000", "172454.015000", "172456.015000", "172458.015000", "172500.015000", "172502.015000", "172504.015000", "172506.015000", "172508.015000", "172510.015000", "172512.015000", "172514.015000", "172516.015000", "172518.015000", "172520.015000", "172522.015000", "172524.015000", "172526.015000", "172528.015000", "172530.015000", "172532.015000", "172534.015000", "172536.015000", "172538.015000", "172540.015000", "172542.015000", "172544.015000", "172546.015000", "172548.015000", "172550.015000", "172552.015000", "172554.015000", "172556.015000", "172558.015000", "172600.015000", "172602.015000", "172604.015000", "172606.015000", "172608.015000", "172610.015000", "172612.015000", "172614.015000", "172616.015000", "172618.015000", "172620.015000", "172622.015000", "172624.015000", "172626.015000", "172628.015000", "172630.015000", "172632.015000", "172634.015000", "172636.015000", "172638.015000", "172640.015000", "172642.015000", "172644.015000", "172646.015000", "172648.015000", "172650.015000", "172652.015000", "172654.015000", "172656.015000", "172658.015000", "172700.015000", "172702.015000", "172704.015000", "172706.015000", "172708.015000", "172710.015000", "172712.015000", "172714.015000", "172716.015000", "172718.015000", "172720.015000", "172722.015000", "172724.015000", "172726.015000", "172728.015000", "172730.015000", "172732.015000", "172734.015000", "172736.015000", "172738.015000", "172740.015000", "172742.015000", "172744.015000", "172746.015000", "172748.015000", "172750.015000", "172752.015000", "172754.015000", "172756.015000", "172758.015000", "172800.015000", "172802.015000", "172804.015000", "172806.015000", "172808.015000", "172810.015000", "172812.015000", "172814.015000", "172816.015000", "172818.015000", "172820.015000", "172822.015000", "172824.015000", "172826.015000", "172828.015000", "172830.015000", "172832.015000", "172834.015000", "172836.015000", "172838.015000", "172840.015000", "172842.015000", "172844.015000", "172846.015000", "172848.015000", "172850.015000", "172852.015000", "172854.015000", "172856.015000", "172858.015000", "172900.015000", "172902.015000", "172904.015000", "172906.015000", "172908.015000", "172910.015000", "172912.015000", "172914.015000", "172916.015000", "172918.015000", "172920.015000", "172922.015000", "172924.015000", "172926.015000", "172928.015000", "172930.015000", "172932.015000", "172934.015000", "172936.015000", "172938.015000", "172940.015000", "172942.015000", "172944.015000", "172946.015000", "172948.015000", "172950.015000", "172952.015000", "172954.015000", "172956.015000", "172958.015000", "173000.015000", "173002.015000", "173004.015000", "173006.015000", "173008.015000", "173010.015000", "173012.015000", "173014.015000", "173016.015000", "173018.015000", "173020.015000", "173022.015000", "173024.015000", "173026.015000", "173028.015000", "173030.015000", "173032.015000", "173034.015000", "173036.015000", "173038.015000", "173040.015000", "173042.015000", "173044.015000", "173046.015000", "173048.015000", "173050.015000", "173052.015000", "173054.015000", "173056.015000", "173058.015000", "173100.015000", "173102.015000", "173104.015000", "173106.015000", "173108.015000", "173110.015000", "173112.015000", "173114.015000", "173116.015000", "173118.015000", "173120.015000", "173122.015000", "173124.015000", "173126.015000", "173128.015000", "173130.015000", "173132.015000", "173134.015000", "173136.015000", "173138.015000", "173140.015000", "173142.015000", "173144.015000", "173146.015000", "173148.015000", "173150.015000", "173152.015000", "173154.015000", "173156.015000", "173158.015000", "173200.015000", "173202.015000", "173204.015000", "173206.015000", "173208.015000", "173210.015000", "173212.015000", "173214.015000", "173216.015000", "173218.015000", "173220.015000", "173222.015000", "173224.015000", "173226.015000", "173228.015000", "173230.015000", "173232.015000", "173234.015000", "173236.015000", "173238.015000", "173240.015000", "173242.015000", "173244.015000", "173246.015000", "173248.015000", "173250.015000", "173252.015000", "173254.015000", "173256.015000", "173258.015000", "173300.015000", "173302.015000", "173304.015000", "173306.015000", "173308.015000", "173310.015000", "173312.015000", "173314.015000", "173316.015000", "173318.015000", "173320.015000", "173322.015000", "173324.015000", "173326.015000", "173328.015000", "173330.015000", "173332.015000", "173334.015000", "173336.015000", "173338.015000", "173340.015000", "173342.015000", "173344.015000", "173346.015000", "173348.015000", "173350.015000", "173352.015000", "173354.015000", "173356.015000", "173358.015000", "173400.015000", "173402.015000", "173404.015000", "173406.015000", "173408.015000", "173410.015000", "173412.015000", "173414.015000", "173416.015000", "173418.015000", "173420.015000", "173422.015000", "173424.015000", "173426.015000", "173428.015000", "173430.015000", "173432.015000", "173434.015000", "173436.015000", "173438.015000", "173440.015000", "173442.015000", "173444.015000", "173446.015000", "173448.015000", "173450.015000", "173452.015000", "173454.015000", "173456.015000", "173458.015000", "173500.015000", "173502.015000", "173504.015000", "173506.015000", "173508.015000", "173510.015000", "173512.015000", "173514.015000", "173516.015000", "173518.015000", "173520.015000", "173522.015000", "173524.015000", "173526.015000", "173528.015000", "173530.015000", "173532.015000", "173534.015000", "173536.015000", "173538.015000", "173540.015000", "173542.015000", "173544.015000", "173546.015000", "173548.015000", "173550.015000", "173552.015000", "173554.015000", "173556.015000", "173558.015000", "173600.015000", "173602.015000", "173604.015000", "173606.015000", "173608.015000", "173610.015000", "173612.015000", "173614.015000", "173616.015000", "173618.015000", "173620.015000", "173622.015000", "173624.015000", "173626.015000", "173628.015000", "173630.015000", "173632.015000", "173634.015000", "173636.015000", "173638.015000", "173640.015000", "173642.015000", "173644.015000", "173646.015000", "173648.015000", "173650.015000", "173652.015000", "173654.015000", "173656.015000", "173658.015000", "173700.015000", "173702.015000", "173704.015000", "173706.015000", "173708.015000", "173710.015000", "173712.015000", "173714.015000", "173716.015000", "173718.015000", "173720.015000", "173722.015000", "173724.015000", "173726.015000", "173728.015000", "173730.015000", "173732.015000", "173734.015000", "173736.015000", "173738.015000", "173740.015000", "173742.015000", "173744.015000", "173746.015000", "173748.015000", "173750.015000", "173752.015000", "173754.015000", "173756.015000", "173758.015000", "173800.015000", "173802.015000", "173804.015000", "173806.015000", "173808.015000", "173810.015000", "173812.015000", "173814.015000", "173816.015000", "173818.015000", "173820.015000", "173822.015000", "173824.015000", "173826.015000", "173828.015000", "173830.015000", "173832.015000", "173834.015000", "173836.015000", "173838.015000", "173840.015000", "173842.015000", "173844.015000", "173846.015000", "173848.015000", "173850.015000", "173852.015000", "173854.015000", "173856.015000", "173858.015000", "173900.015000", "173902.015000", "173904.015000", "173906.015000", "173908.015000", "173910.015000", "173912.015000", "173914.015000", "173916.015000", "173918.015000", "173920.015000", "173922.015000", "173924.015000", "173926.015000", "173928.015000", "173930.015000", "173932.015000", "173934.015000", "173936.015000", "173938.015000", "173940.015000", "173942.015000", "173944.015000", "173946.015000", "173948.015000", "173950.015000", "173952.015000", "173954.015000", "173956.015000", "173958.015000", "174000.015000", "174002.015000", "174004.015000", "174006.015000", "174008.015000", "174010.015000", "174012.015000", "174014.015000", "174016.015000", "174018.015000", "174020.015000", "174022.015000", "174024.015000", "174026.015000", "174028.015000", "174030.015000", "174032.015000", "174034.015000", "174036.015000", "174038.015000", "174040.015000", "174042.015000", "174044.015000", "174046.015000", "174048.015000", "174050.015000", "174052.015000", "174054.015000", "174056.015000", "174058.015000", "174100.015000", "174102.015000", "174104.015000", "174106.015000", "174108.015000", "174110.015000", "174112.015000", "174114.015000", "174116.015000", "174118.015000", "174120.015000", "174122.015000", "174124.015000", "174126.015000", "174128.015000", "174130.015000", "174132.015000", "174134.015000", "174136.015000", "174138.015000", "174140.015000", "174142.015000", "174144.015000", "174146.015000", "174148.015000", "174150.015000", "174152.015000", "174154.015000", "174156.015000", "174158.015000", "174200.015000", "174202.015000", "174204.015000", "174206.015000", "174208.015000", "174210.015000", "174212.015000", "174214.015000", "174216.015000", "174218.015000", "174220.015000", "174222.015000", "174224.015000", "174226.015000", "174228.015000", "174230.015000", "174232.015000", "174234.015000", "174236.015000", "174238.015000", "174240.015000", "174242.015000", "174244.015000", "174246.015000", "174248.015000", "174250.015000", "174252.015000", "174254.015000", "174256.015000", "174258.015000", "174300.015000", "174302.015000", "174304.015000", "174306.015000", "174308.015000", "174310.015000", "174312.015000", "174314.015000", "174316.015000", "174318.015000", "174320.015000", "174322.015000", "174324.015000", "174326.015000", "174328.015000", "174330.015000", "174332.015000", "174334.015000", "174336.015000", "174338.015000", "174340.015000", "174342.015000", "174344.015000", "174346.015000", "174348.015000", "174350.015000", "174352.015000", "174354.015000", "174356.015000", "174358.015000", "174400.015000", "174402.015000", "174404.015000", "174406.015000", "174408.015000", "174410.015000", "174412.015000", "174414.015000", "174416.015000", "174418.015000", "174420.015000", "174422.015000", "174424.015000", "174426.015000", "174428.015000", "174430.015000", "174432.015000", "174434.015000", "174436.015000", "174438.015000", "174440.015000", "174442.015000", "174444.015000", "174446.015000", "174448.015000", "174450.015000", "174452.015000", "174454.015000", "174456.015000", "174458.015000", "174500.015000", "174502.015000", "174504.015000", "174506.015000", "174508.015000", "174510.015000", "174512.015000", "174514.015000", "174516.015000", "174518.015000", "174520.015000", "174522.015000", "174524.015000", "174526.015000", "174528.015000", "174530.015000", "174532.015000", "174534.015000", "174536.015000", "174538.015000", "174540.015000", "174542.015000", "174544.015000", "174546.015000", "174548.015000", "174550.015000", "174552.015000", "174554.015000", "174556.015000", "174558.015000", "174600.015000", "174602.015000", "174604.015000", "174606.015000", "174608.015000", "174610.015000", "174612.015000", "174614.015000", "174616.015000", "174618.015000", "174620.015000", "174622.015000", "174624.015000", "174626.015000", "174628.015000", "174630.015000", "174632.015000", "174634.015000", "174636.015000", "174638.015000", "174640.015000", "174642.015000", "174644.015000", "174646.015000", "174648.015000", "174650.015000", "174652.015000", "174654.015000", "174656.015000", "174658.015000", "174700.015000", "174702.015000", "174704.015000", "174706.015000", "174708.015000", "174710.015000", "174712.015000", "174714.015000", "174716.015000", "174718.015000", "174720.015000", "174722.015000", "174724.015000", "174726.015000", "174728.015000", "174730.015000", "174732.015000", "174734.015000", "174736.015000", "174738.015000", "174740.015000", "174742.015000", "174744.015000", "174746.015000", "174748.015000", "174750.015000", "174752.015000", "174754.015000", "174756.015000", "174758.015000", "174800.015000", "174802.015000", "174804.015000", "174806.015000", "174808.015000", "174810.015000", "174812.015000", "174814.015000", "174816.015000", "174818.015000", "174820.015000", "174822.015000", "174824.015000", "174826.015000", "174828.015000", "174830.015000", "174832.015000", "174834.015000", "174836.015000", "174838.015000", "174840.015000", "174842.015000", "174844.015000", "174846.015000", "174848.015000", "174850.015000", "174852.015000", "174854.015000", "174856.015000", "174858.015000", "174900.015000", "174902.015000", "174904.015000", "174906.015000", "174908.015000", "174910.015000", "174912.015000", "174914.015000", "174916.015000", "174918.015000", "174920.015000", "174922.015000", "174924.015000", "174926.015000", "174928.015000", "174930.015000", "174932.015000", "174934.015000", "174936.015000", "174938.015000", "174940.015000", "174942.015000", "174944.015000", "174946.015000", "174948.015000", "174950.015000", "174952.015000", "174954.015000", "174956.015000", "174958.015000", "175000.015000", "175002.015000", "175004.015000", "175006.015000", "175008.015000", "175010.015000", "175012.015000", "175014.015000", "175016.015000", "175018.015000", "175020.015000", "175022.015000", "175024.015000", "175026.015000", "175028.015000", "175030.015000", "175032.015000", "175034.015000", "175036.015000", "175038.015000", "175040.015000", "175042.015000", "175044.015000", "175046.015000", "175048.015000", "175050.015000", "175052.015000", "175054.015000", "175056.015000", "175058.015000", "175100.015000", "175102.015000", "175104.015000", "175106.015000", "175108.015000", "175110.015000", "175112.015000", "175114.015000", "175116.015000", "175118.015000", "175120.015000", "175122.015000", "175124.015000", "175126.015000", "175128.015000", "175130.015000", "175132.015000", "175134.015000", "175136.015000", "175138.015000", "175140.015000", "175142.015000", "175144.015000", "175146.015000", "175148.015000", "175150.015000", "175152.015000", "175154.015000", "175156.015000", "175158.015000", "175200.015000", "175202.015000", "175204.015000", "175206.015000", "175208.015000", "175210.015000", "175212.015000", "175214.015000", "175216.015000", "175218.015000", "175220.015000", "175222.015000", "175224.015000", "175226.015000", "175228.015000", "175230.015000", "175232.015000", "175234.015000", "175236.015000", "175238.015000", "175240.015000", "175242.015000", "175244.015000", "175246.015000", "175248.015000", "175250.015000", "175252.015000", "175254.015000", "175256.015000", "175258.015000", "175300.015000", "175302.015000", "175304.015000", "175306.015000", "175308.015000", "175310.015000", "175312.015000", "175314.015000", "175316.015000", "175318.015000", "175320.015000", "175322.015000", "175324.015000", "175326.015000", "175328.015000", "175330.015000", "175332.015000", "175334.015000", "175336.015000", "175338.015000", "175340.015000", "175342.015000", "175344.015000", "175346.015000", "175348.015000", "175350.015000", "175352.015000", "175354.015000", "175356.015000", "175358.015000", "175400.015000", "175402.015000", "175404.015000", "175406.015000", "175408.015000", "175410.015000", "175412.015000", "175414.015000", "175416.015000