{
  "AcquisitionMatrixPE": 80,
  "AcquisitionNumber": 1,
  "AcquisitionTime": "10:19:25.390000",
  "BandwidthPerPixelPhaseEncode": 51.02,
  "BaseResolution": 80,
  "BodyPartExamined": "BRAIN",
  "ConsistencyInfo": "N4_VE11C_LATEST_20160120",
  "ConversionSoftware": "dcm2niix",
  "ConversionSoftwareVersion": "v1.0.20170923 (OpenJPEG build) GCC6.3.0",
  "DerivedVendorReportedEchoSpacing": 0.000490004,
  "DeviceSerialNumber": "66112",
  "DwellTime": 2.2e-06,
  "EchoTime": 0.025,
  "EchoTrainLength": 39,
  "EffectiveEchoSpacing": 0.000245002,
  "FlipAngle": 75,
  "ImageType": [
    "ORIGINAL",
    "PRIMARY",
    "FMRI",
    "NONE",
    "ND",
    "NORM",
    "MOSAIC"
],
  "InstitutionAddress": "Maynard_3_Hanover_NH_US_03755",
  "InstitutionName": "Dartmouth_College_-_PBS",
  "MagneticFieldStrength": 3,
  "Manufacturer": "Siemens",
  "ManufacturersModelName": "Prisma",
  "Modality": "MR",
  "ParallelReductionFactorInPlane": 2,
  "PartialFourier": 1,
  "PercentPhaseFOV": 100,
  "PhaseEncodingDirection": "j-",
  "PhaseEncodingSteps": 79,
  "PhaseResolution": 1,
  "ProcedureStepDescription": "Chang_Chang_1039_fnlpilot",
  "ProtocolName": "func_run-01_task-movie",
  "PulseSequenceDetails": "%SiemensSeq%_ep2d_bold",
  "ReceiveCoilActiveElements": "HEA;HEP",
  "ReceiveCoilName": "Head_32",
  "ReconMatrixPE": 80,
  "RepetitionTime": 2,
  "ScanOptions": "FS",
  "ScanningSequence": "EP",
  "SequenceName": "_epfid2d1_80",
  "SequenceVariant": "SK",
  "SeriesDescription": "func_run-01_task-movie",
  "SliceTiming": [0.99, 0, 1.04, 0.05, 1.09, 0.1, 1.14, 0.15, 1.19, 0.2, 1.2375, 0.2475, 1.2875, 0.2975, 1.3375, 0.3475, 1.3875, 0.3975, 1.4375, 0.4475, 1.485, 0.495, 1.535, 0.545, 1.585, 0.595, 1.635, 0.645, 1.685, 0.695, 1.7325, 0.7425, 1.7825, 0.7925, 1.8325, 0.8425, 1.8825, 0.8925, 1.9325, 0.9425],
  "SoftwareVersions": "syngo_MR_E11",
  "StationName": "AWP66112",
  "TaskName": "movie",
  "TotalReadoutTime": 0.0193552,
  "dcmmeta_affine": [
    [-2.9989876747131348, 0.043970588594675064, 0.06433918327093124, 119.88072204589844],
    [0.045044537633657455, 2.9992470741271973, 0.049881841987371445, -107.47137451171875],
    [0.06359191983938217, -0.05083104968070984, 2.9988951683044434, -51.34514617919922],
    [0.0, 0.0, 0.0, 1.0]
],
  "dcmmeta_reorient_transform": [
    [0.0, -1.0, 0.0, 79.0],
    [1.0, 0.0, 0.0, 0.0],
    [0.0, 0.0, 1.0, 0.0],
    [0.0, 0.0, 0.0, 1.0]
],
  "dcmmeta_shape": [80, 80, 40, 1369],
  "dcmmeta_slice_dim": 2,
  "dcmmeta_version": 0.6,
  "global": {
    "const": {
      "AccessionNumber": "A001065",
      "AcquisitionMatrix": [80, 0, 0, 80],
      "AngioFlag": "N",
      "BitsAllocated": 16,
      "BitsStored": 12,
      "BodyPartExamined": "BRAIN",
      "Columns": 560,
      "EchoNumbers": 1,
      "EchoTime": 25.0,
      "EchoTrainLength": 39,
      "FlipAngle": 75.0,
      "HighBit": 11,
      "ImageOrientationPatient": [0.999662557332, -0.0150148463883, 0.02119730776262, 0.01465686322754, 0.99974901247841, 0.0169436834478],
      "ImagePositionPatient": [-853.66438411752, -838.47774207249, -82.82231094317],
      "ImageType": [
        "ORIGINAL",
        "PRIMARY",
        "FMRI",
        "NONE",
        "ND",
        "NORM",
        "MOSAIC"
],
      "ImagedNucleus": "1H",
      "ImagingFrequency": 123.252312,
      "InPlanePhaseEncodingDirection": "COL",
      "MRAcquisitionType": "2D",
      "MagneticFieldStrength": 3.0,
      "Manufacturer": "SIEMENS",
      "ManufacturerModelName": "Prisma",
      "Modality": "MR",
      "NumberOfAverages": 1.0,
      "NumberOfPhaseEncodingSteps": 79,
      "PercentPhaseFieldOfView": 100.0,
      "PercentSampling": 100.0,
      "PerformedProcedureStepStartTime": "100323.956000",
      "PhotometricInterpretation": "MONOCHROME2",
      "PixelBandwidth": 2840.0,
      "PixelRepresentation": 0,
      "PixelSpacing": [3.0, 3.0],
      "PositionReferenceIndicator": "",
      "ProtocolName": "func_run-01_task-movie",
      "RepetitionTime": 2000.0,
      "Rows": 560,
      "SAR": 0.08111506362393,
      "SamplesPerPixel": 1,
      "ScanOptions": "FS",
      "ScanningSequence": "EP",
      "SequenceName": "*epfid2d1_80",
      "SequenceVariant": "SK",
      "SeriesDescription": "func_run-01_task-movie",
      "SeriesNumber": 6,
      "SeriesTime": "101926.761000",
      "SliceLocation": -50.54218247828,
      "SliceThickness": 3.0,
      "SmallestImagePixelValue": 0,
      "SoftwareVersions": "syngo MR E11",
      "SpacingBetweenSlices": 3.0000000297586,
      "SpecificCharacterSet": "ISO_IR 100",
      "StudyID": "1",
      "StudyTime": "100323.804000",
      "TransmitCoilName": "Body",
      "VariableFlipAngleFlag": "N",
      "WindowCenterWidthExplanation": "Algo1",
      "dBdt": 0.0},
    "slices": {}
  },
  "time": {
    "samples": {
      "AcquisitionNumber": [1, 2, 3, 4, 5, 6, 7, 8, 9, 10, 11, 12, 13, 14, 15, 16, 17, 18, 19, 20, 21, 22, 23, 24, 25, 26, 27, 28, 29, 30, 31, 32, 33, 34, 35, 36, 37, 38, 39, 40, 41, 42, 43, 44, 45, 46, 47, 48, 49, 50, 51, 52, 53, 54, 55, 56, 57, 58, 59, 60, 61, 62, 63, 64, 65, 66, 67, 68, 69, 70, 71, 72, 73, 74, 75, 76, 77, 78, 79, 80, 81, 82, 83, 84, 85, 86, 87, 88, 89, 90, 91, 92, 93, 94, 95, 96, 97, 98, 99, 100, 101, 102, 103, 104, 105, 106, 107, 108, 109, 110, 111, 112, 113, 114, 115, 116, 117, 118, 119, 120, 121, 122, 123, 124, 125, 126, 127, 128, 129, 130, 131, 132, 133, 134, 135, 136, 137, 138, 139, 140, 141, 142, 143, 144, 145, 146, 147, 148, 149, 150, 151, 152, 153, 154, 155, 156, 157, 158, 159, 160, 161, 162, 163, 164, 165, 166, 167, 168, 169, 170, 171, 172, 173, 174, 175, 176, 177, 178, 179, 180, 181, 182, 183, 184, 185, 186, 187, 188, 189, 190, 191, 192, 193, 194, 195, 196, 197, 198, 199, 200, 201, 202, 203, 204, 205, 206, 207, 208, 209, 210, 211, 212, 213, 214, 215, 216, 217, 218, 219, 220, 221, 222, 223, 224, 225, 226, 227, 228, 229, 230, 231, 232, 233, 234, 235, 236, 237, 238, 239, 240, 241, 242, 243, 244, 245, 246, 247, 248, 249, 250, 251, 252, 253, 254, 255, 256, 257, 258, 259, 260, 261, 262, 263, 264, 265, 266, 267, 268, 269, 270, 271, 272, 273, 274, 275, 276, 277, 278, 279, 280, 281, 282, 283, 284, 285, 286, 287, 288, 289, 290, 291, 292, 293, 294, 295, 296, 297, 298, 299, 300, 301, 302, 303, 304, 305, 306, 307, 308, 309, 310, 311, 312, 313, 314, 315, 316, 317, 318, 319, 320, 321, 322, 323, 324, 325, 326, 327, 328, 329, 330, 331, 332, 333, 334, 335, 336, 337, 338, 339, 340, 341, 342, 343, 344, 345, 346, 347, 348, 349, 350, 351, 352, 353, 354, 355, 356, 357, 358, 359, 360, 361, 362, 363, 364, 365, 366, 367, 368, 369, 370, 371, 372, 373, 374, 375, 376, 377, 378, 379, 380, 381, 382, 383, 384, 385, 386, 387, 388, 389, 390, 391, 392, 393, 394, 395, 396, 397, 398, 399, 400, 401, 402, 403, 404, 405, 406, 407, 408, 409, 410, 411, 412, 413, 414, 415, 416, 417, 418, 419, 420, 421, 422, 423, 424, 425, 426, 427, 428, 429, 430, 431, 432, 433, 434, 435, 436, 437, 438, 439, 440, 441, 442, 443, 444, 445, 446, 447, 448, 449, 450, 451, 452, 453, 454, 455, 456, 457, 458, 459, 460, 461, 462, 463, 464, 465, 466, 467, 468, 469, 470, 471, 472, 473, 474, 475, 476, 477, 478, 479, 480, 481, 482, 483, 484, 485, 486, 487, 488, 489, 490, 491, 492, 493, 494, 495, 496, 497, 498, 499, 500, 501, 502, 503, 504, 505, 506, 507, 508, 509, 510, 511, 512, 513, 514, 515, 516, 517, 518, 519, 520, 521, 522, 523, 524, 525, 526, 527, 528, 529, 530, 531, 532, 533, 534, 535, 536, 537, 538, 539, 540, 541, 542, 543, 544, 545, 546, 547, 548, 549, 550, 551, 552, 553, 554, 555, 556, 557, 558, 559, 560, 561, 562, 563, 564, 565, 566, 567, 568, 569, 570, 571, 572, 573, 574, 575, 576, 577, 578, 579, 580, 581, 582, 583, 584, 585, 586, 587, 588, 589, 590, 591, 592, 593, 594, 595, 596, 597, 598, 599, 600, 601, 602, 603, 604, 605, 606, 607, 608, 609, 610, 611, 612, 613, 614, 615, 616, 617, 618, 619, 620, 621, 622, 623, 624, 625, 626, 627, 628, 629, 630, 631, 632, 633, 634, 635, 636, 637, 638, 639, 640, 641, 642, 643, 644, 645, 646, 647, 648, 649, 650, 651, 652, 653, 654, 655, 656, 657, 658, 659, 660, 661, 662, 663, 664, 665, 666, 667, 668, 669, 670, 671, 672, 673, 674, 675, 676, 677, 678, 679, 680, 681, 682, 683, 684, 685, 686, 687, 688, 689, 690, 691, 692, 693, 694, 695, 696, 697, 698, 699, 700, 701, 702, 703, 704, 705, 706, 707, 708, 709, 710, 711, 712, 713, 714, 715, 716, 717, 718, 719, 720, 721, 722, 723, 724, 725, 726, 727, 728, 729, 730, 731, 732, 733, 734, 735, 736, 737, 738, 739, 740, 741, 742, 743, 744, 745, 746, 747, 748, 749, 750, 751, 752, 753, 754, 755, 756, 757, 758, 759, 760, 761, 762, 763, 764, 765, 766, 767, 768, 769, 770, 771, 772, 773, 774, 775, 776, 777, 778, 779, 780, 781, 782, 783, 784, 785, 786, 787, 788, 789, 790, 791, 792, 793, 794, 795, 796, 797, 798, 799, 800, 801, 802, 803, 804, 805, 806, 807, 808, 809, 810, 811, 812, 813, 814, 815, 816, 817, 818, 819, 820, 821, 822, 823, 824, 825, 826, 827, 828, 829, 830, 831, 832, 833, 834, 835, 836, 837, 838, 839, 840, 841, 842, 843, 844, 845, 846, 847, 848, 849, 850, 851, 852, 853, 854, 855, 856, 857, 858, 859, 860, 861, 862, 863, 864, 865, 866, 867, 868, 869, 870, 871, 872, 873, 874, 875, 876, 877, 878, 879, 880, 881, 882, 883, 884, 885, 886, 887, 888, 889, 890, 891, 892, 893, 894, 895, 896, 897, 898, 899, 900, 901, 902, 903, 904, 905, 906, 907, 908, 909, 910, 911, 912, 913, 914, 915, 916, 917, 918, 919, 920, 921, 922, 923, 924, 925, 926, 927, 928, 929, 930, 931, 932, 933, 934, 935, 936, 937, 938, 939, 940, 941, 942, 943, 944, 945, 946, 947, 948, 949, 950, 951, 952, 953, 954, 955, 956, 957, 958, 959, 960, 961, 962, 963, 964, 965, 966, 967, 968, 969, 970, 971, 972, 973, 974, 975, 976, 977, 978, 979, 980, 981, 982, 983, 984, 985, 986, 987, 988, 989, 990, 991, 992, 993, 994, 995, 996, 997, 998, 999, 1000, 1001, 1002, 1003, 1004, 1005, 1006, 1007, 1008, 1009, 1010, 1011, 1012, 1013, 1014, 1015, 1016, 1017, 1018, 1019, 1020, 1021, 1022, 1023, 1024, 1025, 1026, 1027, 1028, 1029, 1030, 1031, 1032, 1033, 1034, 1035, 1036, 1037, 1038, 1039, 1040, 1041, 1042, 1043, 1044, 1045, 1046, 1047, 1048, 1049, 1050, 1051, 1052, 1053, 1054, 1055, 1056, 1057, 1058, 1059, 1060, 1061, 1062, 1063, 1064, 1065, 1066, 1067, 1068, 1069, 1070, 1071, 1072, 1073, 1074, 1075, 1076, 1077, 1078, 1079, 1080, 1081, 1082, 1083, 1084, 1085, 1086, 1087, 1088, 1089, 1090, 1091, 1092, 1093, 1094, 1095, 1096, 1097, 1098, 1099, 1100, 1101, 1102, 1103, 1104, 1105, 1106, 1107, 1108, 1109, 1110, 1111, 1112, 1113, 1114, 1115, 1116, 1117, 1118, 1119, 1120, 1121, 1122, 1123, 1124, 1125, 1126, 1127, 1128, 1129, 1130, 1131, 1132, 1133, 1134, 1135, 1136, 1137, 1138, 1139, 1140, 1141, 1142, 1143, 1144, 1145, 1146, 1147, 1148, 1149, 1150, 1151, 1152, 1153, 1154, 1155, 1156, 1157, 1158, 1159, 1160, 1161, 1162, 1163, 1164, 1165, 1166, 1167, 1168, 1169, 1170, 1171, 1172, 1173, 1174, 1175, 1176, 1177, 1178, 1179, 1180, 1181, 1182, 1183, 1184, 1185, 1186, 1187, 1188, 1189, 1190, 1191, 1192, 1193, 1194, 1195, 1196, 1197, 1198, 1199, 1200, 1201, 1202, 1203, 1204, 1205, 1206, 1207, 1208, 1209, 1210, 1211, 1212, 1213, 1214, 1215, 1216, 1217, 1218, 1219, 1220, 1221, 1222, 1223, 1224, 1225, 1226, 1227, 1228, 1229, 1230, 1231, 1232, 1233, 1234, 1235, 1236, 1237, 1238, 1239, 1240, 1241, 1242, 1243, 1244, 1245, 1246, 1247, 1248, 1249, 1250, 1251, 1252, 1253, 1254, 1255, 1256, 1257, 1258, 1259, 1260, 1261, 1262, 1263, 1264, 1265, 1266, 1267, 1268, 1269, 1270, 1271, 1272, 1273, 1274, 1275, 1276, 1277, 1278, 1279, 1280, 1281, 1282, 1283, 1284, 1285, 1286, 1287, 1288, 1289, 1290, 1291, 1292, 1293, 1294, 1295, 1296, 1297, 1298, 1299, 1300, 1301, 1302, 1303, 1304, 1305, 1306, 1307, 1308, 1309, 1310, 1311, 1312, 1313, 1314, 1315, 1316, 1317, 1318, 1319, 1320, 1321, 1322, 1323, 1324, 1325, 1326, 1327, 1328, 1329, 1330, 1331, 1332, 1333, 1334, 1335, 1336, 1337, 1338, 1339, 1340, 1341, 1342, 1343, 1344, 1345, 1346, 1347, 1348, 1349, 1350, 1351, 1352, 1353, 1354, 1355, 1356, 1357, 1358, 1359, 1360, 1361, 1362, 1363, 1364, 1365, 1366, 1367, 1368, 1369],
      "AcquisitionTime": ["101925.390000", "101927.390000", "101929.390000", "101931.390000", "101933.390000", "101935.390000", "101937.390000", "101939.390000", "101941.390000", "101943.390000", "101945.390000", "101947.390000", "101949.390000", "101951.390000", "101953.390000", "101955.390000", "101957.390000", "101959.390000", "102001.390000", "102003.390000", "102005.390000", "102007.390000", "102009.390000", "102011.390000", "102013.390000", "102015.390000", "102017.390000", "102019.390000", "102021.390000", "102023.390000", "102025.390000", "102027.390000", "102029.390000", "102031.390000", "102033.390000", "102035.390000", "102037.390000", "102039.390000", "102041.390000", "102043.390000", "102045.390000", "102047.390000", "102049.390000", "102051.390000", "102053.390000", "102055.390000", "102057.390000", "102059.390000", "102101.390000", "102103.390000", "102105.390000", "102107.390000", "102109.390000", "102111.390000", "102113.390000", "102115.390000", "102117.390000", "102119.390000", "102121.390000", "102123.390000", "102125.390000", "102127.390000", "102129.390000", "102131.390000", "102133.390000", "102135.390000", "102137.390000", "102139.390000", "102141.390000", "102143.390000", "102145.390000", "102147.390000", "102149.390000", "102151.390000", "102153.390000", "102155.390000", "102157.390000", "102159.390000", "102201.390000", "102203.390000", "102205.390000", "102207.390000", "102209.390000", "102211.390000", "102213.390000", "102215.390000", "102217.390000", "102219.390000", "102221.390000", "102223.390000", "102225.390000", "102227.390000", "102229.390000", "102231.390000", "102233.390000", "102235.390000", "102237.390000", "102239.390000", "102241.390000", "102243.390000", "102245.390000", "102247.390000", "102249.390000", "102251.390000", "102253.390000", "102255.390000", "102257.390000", "102259.390000", "102301.390000", "102303.390000", "102305.390000", "102307.390000", "102309.390000", "102311.390000", "102313.390000", "102315.390000", "102317.390000", "102319.390000", "102321.390000", "102323.390000", "102325.390000", "102327.390000", "102329.390000", "102331.390000", "102333.390000", "102335.390000", "102337.390000", "102339.390000", "102341.390000", "102343.390000", "102345.390000", "102347.390000", "102349.390000", "102351.390000", "102353.390000", "102355.390000", "102357.390000", "102359.390000", "102401.390000", "102403.390000", "102405.390000", "102407.390000", "102409.390000", "102411.390000", "102413.390000", "102415.390000", "102417.390000", "102419.390000", "102421.390000", "102423.390000", "102425.390000", "102427.390000", "102429.390000", "102431.390000", "102433.390000", "102435.390000", "102437.390000", "102439.390000", "102441.390000", "102443.390000", "102445.390000", "102447.390000", "102449.390000", "102451.390000", "102453.390000", "102455.390000", "102457.390000", "102459.390000", "102501.390000", "102503.390000", "102505.390000", "102507.390000", "102509.390000", "102511.390000", "102513.390000", "102515.390000", "102517.390000", "102519.390000", "102521.390000", "102523.390000", "102525.390000", "102527.390000", "102529.390000", "102531.390000", "102533.390000", "102535.390000", "102537.390000", "102539.390000", "102541.390000", "102543.390000", "102545.390000", "102547.390000", "102549.390000", "102551.390000", "102553.390000", "102555.390000", "102557.390000", "102559.390000", "102601.390000", "102603.390000", "102605.390000", "102607.390000", "102609.390000", "102611.390000", "102613.390000", "102615.390000", "102617.390000", "102619.390000", "102621.390000", "102623.390000", "102625.390000", "102627.390000", "102629.390000", "102631.390000", "102633.390000", "102635.390000", "102637.390000", "102639.390000", "102641.390000", "102643.390000", "102645.390000", "102647.390000", "102649.390000", "102651.390000", "102653.390000", "102655.390000", "102657.390000", "102659.390000", "102701.390000", "102703.390000", "102705.390000", "102707.390000", "102709.390000", "102711.390000", "102713.390000", "102715.390000", "102717.390000", "102719.390000", "102721.390000", "102723.390000", "102725.390000", "102727.390000", "102729.390000", "102731.390000", "102733.390000", "102735.390000", "102737.390000", "102739.390000", "102741.390000", "102743.390000", "102745.390000", "102747.390000", "102749.390000", "102751.390000", "102753.390000", "102755.390000", "102757.390000", "102759.390000", "102801.390000", "102803.390000", "102805.390000", "102807.390000", "102809.390000", "102811.390000", "102813.390000", "102815.390000", "102817.390000", "102819.390000", "102821.390000", "102823.390000", "102825.390000", "102827.390000", "102829.390000", "102831.390000", "102833.390000", "102835.390000", "102837.390000", "102839.390000", "102841.390000", "102843.390000", "102845.390000", "102847.390000", "102849.390000", "102851.390000", "102853.390000", "102855.390000", "102857.390000", "102859.390000", "102901.390000", "102903.390000", "102905.390000", "102907.390000", "102909.390000", "102911.390000", "102913.390000", "102915.390000", "102917.390000", "102919.390000", "102921.390000", "102923.390000", "102925.390000", "102927.390000", "102929.390000", "102931.390000", "102933.390000", "102935.390000", "102937.390000", "102939.390000", "102941.390000", "102943.390000", "102945.390000", "102947.390000", "102949.390000", "102951.390000", "102953.390000", "102955.390000", "102957.390000", "102959.390000", "103001.390000", "103003.390000", "103005.390000", "103007.390000", "103009.390000", "103011.390000", "103013.390000", "103015.390000", "103017.390000", "103019.390000", "103021.390000", "103023.390000", "103025.390000", "103027.390000", "103029.390000", "103031.390000", "103033.390000", "103035.390000", "103037.390000", "103039.390000", "103041.390000", "103043.390000", "103045.390000", "103047.390000", "103049.390000", "103051.390000", "103053.390000", "103055.390000", "103057.390000", "103059.390000", "103101.390000", "103103.390000", "103105.390000", "103107.390000", "103109.390000", "103111.390000", "103113.390000", "103115.390000", "103117.390000", "103119.390000", "103121.390000", "103123.390000", "103125.390000", "103127.390000", "103129.390000", "103131.390000", "103133.390000", "103135.390000", "103137.390000", "103139.390000", "103141.390000", "103143.390000", "103145.390000", "103147.390000", "103149.390000", "103151.390000", "103153.390000", "103155.390000", "103157.390000", "103159.390000", "103201.390000", "103203.390000", "103205.390000", "103207.390000", "103209.390000", "103211.390000", "103213.390000", "103215.390000", "103217.390000", "103219.390000", "103221.390000", "103223.390000", "103225.390000", "103227.390000", "103229.390000", "103231.390000", "103233.390000", "103235.390000", "103237.390000", "103239.390000", "103241.390000", "103243.390000", "103245.390000", "103247.390000", "103249.390000", "103251.390000", "103253.390000", "103255.390000", "103257.390000", "103259.390000", "103301.390000", "103303.390000", "103305.390000", "103307.390000", "103309.390000", "103311.390000", "103313.390000", "103315.390000", "103317.390000", "103319.390000", "103321.390000", "103323.390000", "103325.390000", "103327.390000", "103329.390000", "103331.390000", "103333.390000", "103335.390000", "103337.390000", "103339.390000", "103341.390000", "103343.390000", "103345.390000", "103347.390000", "103349.390000", "103351.390000", "103353.390000", "103355.390000", "103357.390000", "103359.390000", "103401.390000", "103403.390000", "103405.390000", "103407.390000", "103409.390000", "103411.390000", "103413.390000", "103415.390000", "103417.390000", "103419.390000", "103421.390000", "103423.390000", "103425.390000", "103427.390000", "103429.390000", "103431.390000", "103433.390000", "103435.390000", "103437.390000", "103439.390000", "103441.390000", "103443.390000", "103445.390000", "103447.390000", "103449.390000", "103451.390000", "103453.390000", "103455.390000", "103457.390000", "103459.390000", "103501.390000", "103503.390000", "103505.390000", "103507.390000", "103509.390000", "103511.390000", "103513.390000", "103515.390000", "103517.390000", "103519.390000", "103521.390000", "103523.390000", "103525.390000", "103527.390000", "103529.390000", "103531.390000", "103533.390000", "103535.390000", "103537.390000", "103539.390000", "103541.390000", "103543.390000", "103545.390000", "103547.390000", "103549.390000", "103551.390000", "103553.390000", "103555.390000", "103557.390000", "103559.390000", "103601.390000", "103603.390000", "103605.390000", "103607.390000", "103609.390000", "103611.390000", "103613.390000", "103615.390000", "103617.390000", "103619.390000", "103621.390000", "103623.390000", "103625.390000", "103627.390000", "103629.390000", "103631.390000", "103633.390000", "103635.390000", "103637.390000", "103639.390000", "103641.390000", "103643.390000", "103645.390000", "103647.390000", "103649.390000", "103651.390000", "103653.390000", "103655.390000", "103657.390000", "103659.390000", "103701.390000", "103703.390000", "103705.390000", "103707.390000", "103709.390000", "103711.390000", "103713.390000", "103715.390000", "103717.390000", "103719.390000", "103721.390000", "103723.390000", "103725.390000", "103727.390000", "103729.390000", "103731.390000", "103733.390000", "103735.390000", "103737.390000", "103739.390000", "103741.390000", "103743.390000", "103745.390000", "103747.390000", "103749.390000", "103751.390000", "103753.390000", "103755.390000", "103757.390000", "103759.390000", "103801.390000", "103803.390000", "103805.390000", "103807.390000", "103809.390000", "103811.390000", "103813.390000", "103815.390000", "103817.390000", "103819.390000", "103821.390000", "103823.390000", "103825.390000", "103827.390000", "103829.390000", "103831.390000", "103833.390000", "103835.390000", "103837.390000", "103839.390000", "103841.390000", "103843.390000", "103845.390000", "103847.390000", "103849.390000", "103851.390000", "103853.390000", "103855.390000", "103857.390000", "103859.390000", "103901.390000", "103903.390000", "103905.390000", "103907.390000", "103909.390000", "103911.390000", "103913.390000", "103915.390000", "103917.390000", "103919.390000", "103921.390000", "103923.390000", "103925.390000", "103927.390000", "103929.390000", "103931.390000", "103933.390000", "103935.390000", "103937.390000", "103939.390000", "103941.390000", "103943.390000", "103945.390000", "103947.390000", "103949.390000", "103951.390000", "103953.390000", "103955.390000", "103957.390000", "103959.390000", "104001.390000", "104003.390000", "104005.390000", "104007.390000", "104009.390000", "104011.390000", "104013.390000", "104015.390000", "104017.390000", "104019.390000", "104021.390000", "104023.390000", "104025.390000", "104027.390000", "104029.390000", "104031.390000", "104033.390000", "104035.390000", "104037.390000", "104039.390000", "104041.390000", "104043.390000", "104045.390000", "104047.390000", "104049.390000", "104051.390000", "104053.390000", "104055.390000", "104057.390000", "104059.390000", "104101.390000", "104103.390000", "104105.390000", "104107.390000", "104109.390000", "104111.390000", "104113.390000", "104115.390000", "104117.390000", "104119.390000", "104121.390000", "104123.390000", "104125.390000", "104127.390000", "104129.390000", "104131.390000", "104133.390000", "104135.390000", "104137.390000", "104139.390000", "104141.390000", "104143.390000", "104145.390000", "104147.390000", "104149.390000", "104151.390000", "104153.390000", "104155.390000", "104157.390000", "104159.390000", "104201.390000", "104203.390000", "104205.390000", "104207.390000", "104209.390000", "104211.390000", "104213.390000", "104215.390000", "104217.390000", "104219.390000", "104221.390000", "104223.390000", "104225.390000", "104227.390000", "104229.390000", "104231.390000", "104233.390000", "104235.390000", "104237.390000", "104239.390000", "104241.390000", "104243.390000", "104245.390000", "104247.390000", "104249.390000", "104251.390000", "104253.390000", "104255.390000", "104257.390000", "104259.390000", "104301.390000", "104303.390000", "104305.390000", "104307.390000", "104309.390000", "104311.390000", "104313.390000", "104315.390000", "104317.390000", "104319.390000", "104321.390000", "104323.390000", "104325.390000", "104327.390000", "104329.390000", "104331.390000", "104333.390000", "104335.390000", "104337.390000", "104339.390000", "104341.390000", "104343.390000", "104345.390000", "104347.390000", "104349.390000", "104351.390000", "104353.390000", "104355.390000", "104357.390000", "104359.390000", "104401.390000", "104403.390000", "104405.390000", "104407.390000", "104409.390000", "104411.390000", "104413.390000", "104415.390000", "104417.390000", "104419.390000", "104421.390000", "104423.390000", "104425.390000", "104427.390000", "104429.390000", "104431.390000", "104433.390000", "104435.390000", "104437.390000", "104439.390000", "104441.390000", "104443.390000", "104445.390000", "104447.390000", "104449.390000", "104451.390000", "104453.390000", "104455.390000", "104457.390000", "104459.390000", "104501.390000", "104503.390000", "104505.390000", "104507.390000", "104509.390000", "104511.390000", "104513.390000", "104515.390000", "104517.390000", "104519.390000", "104521.390000", "104523.390000", "104525.390000", "104527.390000", "104529.390000", "104531.390000", "104533.390000", "104535.390000", "104537.390000", "104539.390000", "104541.390000", "104543.390000", "104545.390000", "104547.390000", "104549.390000", "104551.390000", "104553.390000", "104555.390000", "104557.390000", "104559.390000", "104601.390000", "104603.390000", "104605.390000", "104607.390000", "104609.390000", "104611.390000", "104613.390000", "104615.390000", "104617.390000", "104619.390000", "104621.390000", "104623.390000", "104625.390000", "104627.390000", "104629.390000", "104631.390000", "104633.390000", "104635.390000", "104637.390000", "104639.390000", "104641.390000", "104643.390000", "104645.390000", "104647.390000", "104649.390000", "104651.390000", "104653.390000", "104655.390000", "104657.390000", "104659.390000", "104701.390000", "104703.390000", "104705.390000", "104707.390000", "104709.390000", "104711.390000", "104713.390000", "104715.390000", "104717.390000", "104719.390000", "104721.390000", "104723.390000", "104725.390000", "104727.390000", "104729.390000", "104731.390000", "104733.390000", "104735.390000", "104737.390000", "104739.390000", "104741.390000", "104743.390000", "104745.390000", "104747.390000", "104749.390000", "104751.390000", "104753.390000", "104755.390000", "104757.390000", "104759.390000", "104801.390000", "104803.390000", "104805.390000", "104807.390000", "104809.390000", "104811.390000", "104813.390000", "104815.390000", "104817.390000", "104819.390000", "104821.390000", "104823.390000", "104825.390000", "104827.390000", "104829.390000", "104831.390000", "104833.390000", "104835.390000", "104837.390000", "104839.390000", "104841.390000", "104843.390000", "104845.390000", "104847.390000", "104849.390000", "104851.390000", "104853.390000", "104855.390000", "104857.390000", "104859.390000", "104901.390000", "104903.390000", "104905.390000", "104907.390000", "104909.390000", "104911.390000", "104913.390000", "104915.390000", "104917.390000", "104919.390000", "104921.390000", "104923.390000", "104925.390000", "104927.390000", "104929.390000", "104931.390000", "104933.390000", "104935.390000", "104937.390000", "104939.390000", "104941.390000", "104943.390000", "104945.390000", "104947.390000", "104949.390000", "104951.390000", "104953.390000", "104955.390000", "104957.390000", "104959.390000", "105001.390000", "105003.390000", "105005.390000", "105007.390000", "105009.390000", "105011.390000", "105013.390000", "105015.390000", "105017.390000", "105019.390000", "105021.390000", "105023.390000", "105025.390000", "105027.390000", "105029.390000", "105031.390000", "105033.390000", "105035.390000", "105037.390000", "105039.390000", "105041.390000", "105043.390000", "105045.390000", "105047.390000", "105049.390000", "105051.390000", "105053.390000", "105055.390000", "105057.390000", "105059.390000", "105101.390000", "105103.390000", "105105.390000", "105107.390000", "105109.390000", "105111.390000", "105113.390000", "105115.390000", "105117.390000", "105119.390000", "105121.390000", "105123.390000", "105125.390000", "105127.390000", "105129.390000", "105131.390000", "105133.390000", "105135.390000", "105137.390000", "105139.390000", "105141.390000", "105143.390000", "105145.390000", "105147.390000", "105149.390000", "105151.390000", "105153.390000", "105155.390000", "105157.390000", "105159.390000", "105201.390000", "105203.390000", "105205.390000", "105207.390000", "105209.390000", "105211.390000", "105213.390000", "105215.390000", "105217.390000", "105219.390000", "105221.390000", "105223.390000", "105225.390000", "105227.390000", "105229.390000", "105231.390000", "105233.390000", "105235.390000", "105237.390000", "105239.390000", "105241.390000", "105243.390000", "105245.390000", "105247.390000", "105249.390000", "105251.390000", "105253.390000", "105255.390000", "105257.390000", "105259.390000", "105301.390000", "105303.390000", "105305.390000", "105307.390000", "105309.390000", "105311.390000", "105313.390000", "105315.390000", "105317.390000", "105319.390000", "105321.390000", "105323.390000", "105325.390000", "105327.390000", "105329.390000", "105331.390000", "105333.390000", "105335.390000", "105337.390000", "105339.390000", "105341.390000", "105343.390000", "105345.390000", "105347.390000", "105349.390000", "105351.390000", "105353.390000", "105355.390000", "105357.390000", "105359.390000", "105401.390000", "105403.390000", "105405.390000", "105407.390000", "105409.390000", "105411.390000", "105413.390000", "105415.390000", "105417.390000", "105419.390000", "105421.390000", "105423.390000", "105425.390000", "105427.390000", "105429.390000", "105431.390000", "105433.390000", "105435.390000", "105437.390000", "105439.390000", "105441.390000", "105443.390000", "105445.390000", "105447.390000", "105449.390000