{
  "AcquisitionMatrixPE": 80,
  "AcquisitionNumber": 1,
  "AcquisitionTime": "15:57:0.415000",
  "BandwidthPerPixelPhaseEncode": 51.02,
  "BaseResolution": 80,
  "BodyPartExamined": "BRAIN",
  "ConsistencyInfo": "N4_VE11C_LATEST_20160120",
  "ConversionSoftware": "dcm2niix",
  "ConversionSoftwareVersion": "v1.0.20170923 (OpenJPEG build) GCC6.3.0",
  "DerivedVendorReportedEchoSpacing": 0.000490004,
  "DeviceSerialNumber": "66112",
  "DwellTime": 2.2e-06,
  "EchoTime": 0.025,
  "EchoTrainLength": 39,
  "EffectiveEchoSpacing": 0.000245002,
  "FlipAngle": 75,
  "ImageType": [
    "ORIGINAL",
    "PRIMARY",
    "FMRI",
    "NONE",
    "ND",
    "NORM",
    "MOSAIC"
],
  "InstitutionAddress": "Maynard_3_Hanover_NH_US_03755",
  "InstitutionName": "Dartmouth_College_-_PBS",
  "MagneticFieldStrength": 3,
  "Manufacturer": "Siemens",
  "ManufacturersModelName": "Prisma",
  "Modality": "MR",
  "ParallelReductionFactorInPlane": 2,
  "PartialFourier": 1,
  "PercentPhaseFOV": 100,
  "PhaseEncodingDirection": "j-",
  "PhaseEncodingSteps": 79,
  "PhaseResolution": 1,
  "ProcedureStepDescription": "Chang_Chang_1039_fnlpilot",
  "ProtocolName": "func_run-01_task-movie",
  "PulseSequenceDetails": "%SiemensSeq%_ep2d_bold",
  "ReceiveCoilActiveElements": "HEA;HEP",
  "ReceiveCoilName": "Head_32",
  "ReconMatrixPE": 80,
  "RepetitionTime": 2,
  "ScanOptions": "FS",
  "ScanningSequence": "EP",
  "SequenceName": "_epfid2d1_80",
  "SequenceVariant": "SK",
  "SeriesDescription": "func_run-01_task-movie",
  "SliceTiming": [0.99, 0, 1.04, 0.05, 1.09, 0.1, 1.1375, 0.1475, 1.1875, 0.1975, 1.2375, 0.2475, 1.2875, 0.2975, 1.335, 0.3475, 1.385, 0.395, 1.435, 0.445, 1.485, 0.495, 1.535, 0.545, 1.5825, 0.595, 1.6325, 0.6425, 1.6825, 0.6925, 1.7325, 0.7425, 1.7825, 0.7925, 1.83, 0.8425, 1.88, 0.89, 1.93, 0.94],
  "SoftwareVersions": "syngo_MR_E11",
  "StationName": "AWP66112",
  "TaskName": "movie",
  "TotalReadoutTime": 0.0193552,
  "dcmmeta_affine": [
    [-2.996875286102295, -0.11093773692846298, -0.08019740134477615, 127.00405883789062],
    [-0.12307213246822357, 2.9530677795410156, 0.5140462517738342, -108.59337615966797],
    [-0.059933751821517944, -0.5168008208274841, 2.954542875289917, -11.591082572937012],
    [0.0, 0.0, 0.0, 1.0]
],
  "dcmmeta_reorient_transform": [
    [0.0, -1.0, 0.0, 79.0],
    [1.0, 0.0, 0.0, 0.0],
    [0.0, 0.0, 1.0, 0.0],
    [0.0, 0.0, 0.0, 1.0]
],
  "dcmmeta_shape": [80, 80, 40, 1369],
  "dcmmeta_slice_dim": 2,
  "dcmmeta_version": 0.6,
  "global": {
    "const": {
      "AccessionNumber": "A001223",
      "AcquisitionMatrix": [80, 0, 0, 80],
      "AngioFlag": "N",
      "BitsAllocated": 16,
      "BitsStored": 12,
      "BodyPartExamined": "BRAIN",
      "Columns": 560,
      "EchoNumbers": 1,
      "EchoTime": 25.0,
      "EchoTrainLength": 39,
      "FlipAngle": 75.0,
      "HighBit": 11,
      "ImageOrientationPatient": [0.9989584128198, 0.04102404495432, -0.0199779176123, -0.0369792448919, 0.98435594875, 0.17226694868058],
      "ImagePositionPatient": [-810.86497841919, -862.97257903952, -162.06645141105],
      "ImageType": [
        "ORIGINAL",
        "PRIMARY",
        "FMRI",
        "NONE",
        "ND",
        "NORM",
        "MOSAIC"
],
      "ImagedNucleus": "1H",
      "ImagingFrequency": 123.252269,
      "InPlanePhaseEncodingDirection": "COL",
      "MRAcquisitionType": "2D",
      "MagneticFieldStrength": 3.0,
      "Manufacturer": "SIEMENS",
      "ManufacturerModelName": "Prisma",
      "Modality": "MR",
      "NumberOfAverages": 1.0,
      "NumberOfPhaseEncodingSteps": 79,
      "PercentPhaseFieldOfView": 100.0,
      "PercentSampling": 100.0,
      "PerformedProcedureStepStartTime": "153904.933000",
      "PhotometricInterpretation": "MONOCHROME2",
      "PixelBandwidth": 2840.0,
      "PixelRepresentation": 0,
      "PixelSpacing": [3.0, 3.0],
      "PositionReferenceIndicator": "",
      "ProtocolName": "func_run-01_task-movie",
      "RepetitionTime": 2000.0,
      "Rows": 560,
      "SAR": 0.11121362370874,
      "SamplesPerPixel": 1,
      "ScanOptions": "FS",
      "ScanningSequence": "EP",
      "SequenceName": "*epfid2d1_80",
      "SequenceVariant": "SK",
      "SeriesDescription": "func_run-01_task-movie",
      "SeriesNumber": 6,
      "SeriesTime": "155702.266000",
      "SliceLocation": -33.417921865853,
      "SliceThickness": 3.0,
      "SmallestImagePixelValue": 0,
      "SoftwareVersions": "syngo MR E11",
      "SpacingBetweenSlices": 2.9999999062373,
      "SpecificCharacterSet": "ISO_IR 100",
      "StudyID": "1",
      "StudyTime": "153904.867000",
      "TransmitCoilName": "Body",
      "VariableFlipAngleFlag": "N",
      "WindowCenterWidthExplanation": "Algo1",
      "dBdt": 0.0},
    "slices": {}
  },
  "time": {
    "samples": {
      "AcquisitionNumber": [1, 2, 3, 4, 5, 6, 7, 8, 9, 10, 11, 12, 13, 14, 15, 16, 17, 18, 19, 20, 21, 22, 23, 24, 25, 26, 27, 28, 29, 30, 31, 32, 33, 34, 35, 36, 37, 38, 39, 40, 41, 42, 43, 44, 45, 46, 47, 48, 49, 50, 51, 52, 53, 54, 55, 56, 57, 58, 59, 60, 61, 62, 63, 64, 65, 66, 67, 68, 69, 70, 71, 72, 73, 74, 75, 76, 77, 78, 79, 80, 81, 82, 83, 84, 85, 86, 87, 88, 89, 90, 91, 92, 93, 94, 95, 96, 97, 98, 99, 100, 101, 102, 103, 104, 105, 106, 107, 108, 109, 110, 111, 112, 113, 114, 115, 116, 117, 118, 119, 120, 121, 122, 123, 124, 125, 126, 127, 128, 129, 130, 131, 132, 133, 134, 135, 136, 137, 138, 139, 140, 141, 142, 143, 144, 145, 146, 147, 148, 149, 150, 151, 152, 153, 154, 155, 156, 157, 158, 159, 160, 161, 162, 163, 164, 165, 166, 167, 168, 169, 170, 171, 172, 173, 174, 175, 176, 177, 178, 179, 180, 181, 182, 183, 184, 185, 186, 187, 188, 189, 190, 191, 192, 193, 194, 195, 196, 197, 198, 199, 200, 201, 202, 203, 204, 205, 206, 207, 208, 209, 210, 211, 212, 213, 214, 215, 216, 217, 218, 219, 220, 221, 222, 223, 224, 225, 226, 227, 228, 229, 230, 231, 232, 233, 234, 235, 236, 237, 238, 239, 240, 241, 242, 243, 244, 245, 246, 247, 248, 249, 250, 251, 252, 253, 254, 255, 256, 257, 258, 259, 260, 261, 262, 263, 264, 265, 266, 267, 268, 269, 270, 271, 272, 273, 274, 275, 276, 277, 278, 279, 280, 281, 282, 283, 284, 285, 286, 287, 288, 289, 290, 291, 292, 293, 294, 295, 296, 297, 298, 299, 300, 301, 302, 303, 304, 305, 306, 307, 308, 309, 310, 311, 312, 313, 314, 315, 316, 317, 318, 319, 320, 321, 322, 323, 324, 325, 326, 327, 328, 329, 330, 331, 332, 333, 334, 335, 336, 337, 338, 339, 340, 341, 342, 343, 344, 345, 346, 347, 348, 349, 350, 351, 352, 353, 354, 355, 356, 357, 358, 359, 360, 361, 362, 363, 364, 365, 366, 367, 368, 369, 370, 371, 372, 373, 374, 375, 376, 377, 378, 379, 380, 381, 382, 383, 384, 385, 386, 387, 388, 389, 390, 391, 392, 393, 394, 395, 396, 397, 398, 399, 400, 401, 402, 403, 404, 405, 406, 407, 408, 409, 410, 411, 412, 413, 414, 415, 416, 417, 418, 419, 420, 421, 422, 423, 424, 425, 426, 427, 428, 429, 430, 431, 432, 433, 434, 435, 436, 437, 438, 439, 440, 441, 442, 443, 444, 445, 446, 447, 448, 449, 450, 451, 452, 453, 454, 455, 456, 457, 458, 459, 460, 461, 462, 463, 464, 465, 466, 467, 468, 469, 470, 471, 472, 473, 474, 475, 476, 477, 478, 479, 480, 481, 482, 483, 484, 485, 486, 487, 488, 489, 490, 491, 492, 493, 494, 495, 496, 497, 498, 499, 500, 501, 502, 503, 504, 505, 506, 507, 508, 509, 510, 511, 512, 513, 514, 515, 516, 517, 518, 519, 520, 521, 522, 523, 524, 525, 526, 527, 528, 529, 530, 531, 532, 533, 534, 535, 536, 537, 538, 539, 540, 541, 542, 543, 544, 545, 546, 547, 548, 549, 550, 551, 552, 553, 554, 555, 556, 557, 558, 559, 560, 561, 562, 563, 564, 565, 566, 567, 568, 569, 570, 571, 572, 573, 574, 575, 576, 577, 578, 579, 580, 581, 582, 583, 584, 585, 586, 587, 588, 589, 590, 591, 592, 593, 594, 595, 596, 597, 598, 599, 600, 601, 602, 603, 604, 605, 606, 607, 608, 609, 610, 611, 612, 613, 614, 615, 616, 617, 618, 619, 620, 621, 622, 623, 624, 625, 626, 627, 628, 629, 630, 631, 632, 633, 634, 635, 636, 637, 638, 639, 640, 641, 642, 643, 644, 645, 646, 647, 648, 649, 650, 651, 652, 653, 654, 655, 656, 657, 658, 659, 660, 661, 662, 663, 664, 665, 666, 667, 668, 669, 670, 671, 672, 673, 674, 675, 676, 677, 678, 679, 680, 681, 682, 683, 684, 685, 686, 687, 688, 689, 690, 691, 692, 693, 694, 695, 696, 697, 698, 699, 700, 701, 702, 703, 704, 705, 706, 707, 708, 709, 710, 711, 712, 713, 714, 715, 716, 717, 718, 719, 720, 721, 722, 723, 724, 725, 726, 727, 728, 729, 730, 731, 732, 733, 734, 735, 736, 737, 738, 739, 740, 741, 742, 743, 744, 745, 746, 747, 748, 749, 750, 751, 752, 753, 754, 755, 756, 757, 758, 759, 760, 761, 762, 763, 764, 765, 766, 767, 768, 769, 770, 771, 772, 773, 774, 775, 776, 777, 778, 779, 780, 781, 782, 783, 784, 785, 786, 787, 788, 789, 790, 791, 792, 793, 794, 795, 796, 797, 798, 799, 800, 801, 802, 803, 804, 805, 806, 807, 808, 809, 810, 811, 812, 813, 814, 815, 816, 817, 818, 819, 820, 821, 822, 823, 824, 825, 826, 827, 828, 829, 830, 831, 832, 833, 834, 835, 836, 837, 838, 839, 840, 841, 842, 843, 844, 845, 846, 847, 848, 849, 850, 851, 852, 853, 854, 855, 856, 857, 858, 859, 860, 861, 862, 863, 864, 865, 866, 867, 868, 869, 870, 871, 872, 873, 874, 875, 876, 877, 878, 879, 880, 881, 882, 883, 884, 885, 886, 887, 888, 889, 890, 891, 892, 893, 894, 895, 896, 897, 898, 899, 900, 901, 902, 903, 904, 905, 906, 907, 908, 909, 910, 911, 912, 913, 914, 915, 916, 917, 918, 919, 920, 921, 922, 923, 924, 925, 926, 927, 928, 929, 930, 931, 932, 933, 934, 935, 936, 937, 938, 939, 940, 941, 942, 943, 944, 945, 946, 947, 948, 949, 950, 951, 952, 953, 954, 955, 956, 957, 958, 959, 960, 961, 962, 963, 964, 965, 966, 967, 968, 969, 970, 971, 972, 973, 974, 975, 976, 977, 978, 979, 980, 981, 982, 983, 984, 985, 986, 987, 988, 989, 990, 991, 992, 993, 994, 995, 996, 997, 998, 999, 1000, 1001, 1002, 1003, 1004, 1005, 1006, 1007, 1008, 1009, 1010, 1011, 1012, 1013, 1014, 1015, 1016, 1017, 1018, 1019, 1020, 1021, 1022, 1023, 1024, 1025, 1026, 1027, 1028, 1029, 1030, 1031, 1032, 1033, 1034, 1035, 1036, 1037, 1038, 1039, 1040, 1041, 1042, 1043, 1044, 1045, 1046, 1047, 1048, 1049, 1050, 1051, 1052, 1053, 1054, 1055, 1056, 1057, 1058, 1059, 1060, 1061, 1062, 1063, 1064, 1065, 1066, 1067, 1068, 1069, 1070, 1071, 1072, 1073, 1074, 1075, 1076, 1077, 1078, 1079, 1080, 1081, 1082, 1083, 1084, 1085, 1086, 1087, 1088, 1089, 1090, 1091, 1092, 1093, 1094, 1095, 1096, 1097, 1098, 1099, 1100, 1101, 1102, 1103, 1104, 1105, 1106, 1107, 1108, 1109, 1110, 1111, 1112, 1113, 1114, 1115, 1116, 1117, 1118, 1119, 1120, 1121, 1122, 1123, 1124, 1125, 1126, 1127, 1128, 1129, 1130, 1131, 1132, 1133, 1134, 1135, 1136, 1137, 1138, 1139, 1140, 1141, 1142, 1143, 1144, 1145, 1146, 1147, 1148, 1149, 1150, 1151, 1152, 1153, 1154, 1155, 1156, 1157, 1158, 1159, 1160, 1161, 1162, 1163, 1164, 1165, 1166, 1167, 1168, 1169, 1170, 1171, 1172, 1173, 1174, 1175, 1176, 1177, 1178, 1179, 1180, 1181, 1182, 1183, 1184, 1185, 1186, 1187, 1188, 1189, 1190, 1191, 1192, 1193, 1194, 1195, 1196, 1197, 1198, 1199, 1200, 1201, 1202, 1203, 1204, 1205, 1206, 1207, 1208, 1209, 1210, 1211, 1212, 1213, 1214, 1215, 1216, 1217, 1218, 1219, 1220, 1221, 1222, 1223, 1224, 1225, 1226, 1227, 1228, 1229, 1230, 1231, 1232, 1233, 1234, 1235, 1236, 1237, 1238, 1239, 1240, 1241, 1242, 1243, 1244, 1245, 1246, 1247, 1248, 1249, 1250, 1251, 1252, 1253, 1254, 1255, 1256, 1257, 1258, 1259, 1260, 1261, 1262, 1263, 1264, 1265, 1266, 1267, 1268, 1269, 1270, 1271, 1272, 1273, 1274, 1275, 1276, 1277, 1278, 1279, 1280, 1281, 1282, 1283, 1284, 1285, 1286, 1287, 1288, 1289, 1290, 1291, 1292, 1293, 1294, 1295, 1296, 1297, 1298, 1299, 1300, 1301, 1302, 1303, 1304, 1305, 1306, 1307, 1308, 1309, 1310, 1311, 1312, 1313, 1314, 1315, 1316, 1317, 1318, 1319, 1320, 1321, 1322, 1323, 1324, 1325, 1326, 1327, 1328, 1329, 1330, 1331, 1332, 1333, 1334, 1335, 1336, 1337, 1338, 1339, 1340, 1341, 1342, 1343, 1344, 1345, 1346, 1347, 1348, 1349, 1350, 1351, 1352, 1353, 1354, 1355, 1356, 1357, 1358, 1359, 1360, 1361, 1362, 1363, 1364, 1365, 1366, 1367, 1368, 1369],
      "AcquisitionTime": ["155700.415000", "155702.415000", "155704.415000", "155706.415000", "155708.415000", "155710.415000", "155712.415000", "155714.415000", "155716.415000", "155718.415000", "155720.415000", "155722.415000", "155724.415000", "155726.415000", "155728.415000", "155730.415000", "155732.415000", "155734.415000", "155736.415000", "155738.415000", "155740.415000", "155742.415000", "155744.415000", "155746.415000", "155748.415000", "155750.415000", "155752.415000", "155754.415000", "155756.415000", "155758.415000", "155800.415000", "155802.415000", "155804.415000", "155806.415000", "155808.415000", "155810.415000", "155812.415000", "155814.415000", "155816.415000", "155818.415000", "155820.415000", "155822.415000", "155824.415000", "155826.415000", "155828.415000", "155830.415000", "155832.415000", "155834.415000", "155836.415000", "155838.415000", "155840.415000", "155842.415000", "155844.415000", "155846.415000", "155848.415000", "155850.415000", "155852.415000", "155854.415000", "155856.415000", "155858.415000", "155900.415000", "155902.415000", "155904.415000", "155906.415000", "155908.415000", "155910.415000", "155912.415000", "155914.415000", "155916.415000", "155918.415000", "155920.415000", "155922.415000", "155924.415000", "155926.415000", "155928.415000", "155930.415000", "155932.415000", "155934.415000", "155936.415000", "155938.415000", "155940.415000", "155942.415000", "155944.415000", "155946.415000", "155948.415000", "155950.415000", "155952.415000", "155954.415000", "155956.415000", "155958.415000", "160000.415000", "160002.415000", "160004.415000", "160006.415000", "160008.415000", "160010.415000", "160012.415000", "160014.415000", "160016.415000", "160018.415000", "160020.415000", "160022.415000", "160024.415000", "160026.415000", "160028.415000", "160030.415000", "160032.415000", "160034.415000", "160036.415000", "160038.415000", "160040.415000", "160042.415000", "160044.415000", "160046.415000", "160048.415000", "160050.415000", "160052.415000", "160054.415000", "160056.415000", "160058.415000", "160100.415000", "160102.415000", "160104.415000", "160106.415000", "160108.415000", "160110.415000", "160112.415000", "160114.415000", "160116.415000", "160118.415000", "160120.415000", "160122.415000", "160124.415000", "160126.415000", "160128.415000", "160130.415000", "160132.415000", "160134.415000", "160136.415000", "160138.415000", "160140.415000", "160142.415000", "160144.415000", "160146.415000", "160148.415000", "160150.415000", "160152.415000", "160154.415000", "160156.415000", "160158.415000", "160200.415000", "160202.415000", "160204.415000", "160206.415000", "160208.415000", "160210.415000", "160212.415000", "160214.415000", "160216.415000", "160218.415000", "160220.415000", "160222.415000", "160224.415000", "160226.415000", "160228.415000", "160230.415000", "160232.415000", "160234.415000", "160236.415000", "160238.415000", "160240.415000", "160242.415000", "160244.415000", "160246.415000", "160248.415000", "160250.415000", "160252.415000", "160254.415000", "160256.415000", "160258.415000", "160300.415000", "160302.415000", "160304.415000", "160306.415000", "160308.415000", "160310.415000", "160312.415000", "160314.415000", "160316.415000", "160318.415000", "160320.415000", "160322.415000", "160324.415000", "160326.415000", "160328.415000", "160330.415000", "160332.415000", "160334.415000", "160336.415000", "160338.415000", "160340.415000", "160342.415000", "160344.415000", "160346.415000", "160348.415000", "160350.415000", "160352.415000", "160354.415000", "160356.415000", "160358.415000", "160400.415000", "160402.415000", "160404.415000", "160406.415000", "160408.415000", "160410.415000", "160412.415000", "160414.415000", "160416.415000", "160418.415000", "160420.415000", "160422.415000", "160424.415000", "160426.415000", "160428.415000", "160430.415000", "160432.415000", "160434.415000", "160436.415000", "160438.415000", "160440.415000", "160442.415000", "160444.415000", "160446.415000", "160448.415000", "160450.415000", "160452.415000", "160454.415000", "160456.415000", "160458.415000", "160500.415000", "160502.415000", "160504.415000", "160506.415000", "160508.415000", "160510.415000", "160512.415000", "160514.415000", "160516.415000", "160518.415000", "160520.415000", "160522.415000", "160524.415000", "160526.415000", "160528.415000", "160530.415000", "160532.415000", "160534.415000", "160536.415000", "160538.415000", "160540.415000", "160542.415000", "160544.415000", "160546.415000", "160548.415000", "160550.415000", "160552.415000", "160554.415000", "160556.415000", "160558.415000", "160600.415000", "160602.415000", "160604.415000", "160606.415000", "160608.415000", "160610.415000", "160612.415000", "160614.415000", "160616.415000", "160618.415000", "160620.415000", "160622.415000", "160624.415000", "160626.415000", "160628.415000", "160630.415000", "160632.415000", "160634.415000", "160636.415000", "160638.415000", "160640.415000", "160642.415000", "160644.415000", "160646.415000", "160648.415000", "160650.415000", "160652.415000", "160654.415000", "160656.415000", "160658.415000", "160700.415000", "160702.415000", "160704.415000", "160706.415000", "160708.415000", "160710.415000", "160712.415000", "160714.415000", "160716.415000", "160718.415000", "160720.415000", "160722.415000", "160724.415000", "160726.415000", "160728.415000", "160730.415000", "160732.415000", "160734.415000", "160736.415000", "160738.415000", "160740.415000", "160742.415000", "160744.415000", "160746.415000", "160748.415000", "160750.415000", "160752.415000", "160754.415000", "160756.415000", "160758.415000", "160800.415000", "160802.415000", "160804.415000", "160806.415000", "160808.415000", "160810.415000", "160812.415000", "160814.415000", "160816.415000", "160818.415000", "160820.415000", "160822.415000", "160824.415000", "160826.415000", "160828.415000", "160830.415000", "160832.415000", "160834.415000", "160836.415000", "160838.415000", "160840.415000", "160842.415000", "160844.415000", "160846.415000", "160848.415000", "160850.415000", "160852.415000", "160854.415000", "160856.415000", "160858.415000", "160900.415000", "160902.415000", "160904.415000", "160906.415000", "160908.415000", "160910.415000", "160912.415000", "160914.415000", "160916.415000", "160918.415000", "160920.415000", "160922.415000", "160924.415000", "160926.415000", "160928.415000", "160930.415000", "160932.415000", "160934.415000", "160936.415000", "160938.415000", "160940.415000", "160942.415000", "160944.415000", "160946.415000", "160948.415000", "160950.415000", "160952.415000", "160954.415000", "160956.415000", "160958.415000", "161000.415000", "161002.415000", "161004.415000", "161006.415000", "161008.415000", "161010.415000", "161012.415000", "161014.415000", "161016.415000", "161018.415000", "161020.415000", "161022.415000", "161024.415000", "161026.415000", "161028.415000", "161030.415000", "161032.415000", "161034.415000", "161036.415000", "161038.415000", "161040.415000", "161042.415000", "161044.415000", "161046.415000", "161048.415000", "161050.415000", "161052.415000", "161054.415000", "161056.415000", "161058.415000", "161100.415000", "161102.415000", "161104.415000", "161106.415000", "161108.415000", "161110.415000", "161112.415000", "161114.415000", "161116.415000", "161118.415000", "161120.415000", "161122.415000", "161124.415000", "161126.415000", "161128.415000", "161130.415000", "161132.415000", "161134.415000", "161136.415000", "161138.415000", "161140.415000", "161142.415000", "161144.415000", "161146.415000", "161148.415000", "161150.415000", "161152.415000", "161154.415000", "161156.415000", "161158.415000", "161200.415000", "161202.415000", "161204.415000", "161206.415000", "161208.415000", "161210.415000", "161212.415000", "161214.415000", "161216.415000", "161218.415000", "161220.415000", "161222.415000", "161224.415000", "161226.415000", "161228.415000", "161230.415000", "161232.415000", "161234.415000", "161236.415000", "161238.415000", "161240.415000", "161242.415000", "161244.415000", "161246.415000", "161248.415000", "161250.415000", "161252.415000", "161254.415000", "161256.415000", "161258.415000", "161300.415000", "161302.415000", "161304.415000", "161306.415000", "161308.415000", "161310.415000", "161312.415000", "161314.415000", "161316.415000", "161318.415000", "161320.415000", "161322.415000", "161324.415000", "161326.415000", "161328.415000", "161330.415000", "161332.415000", "161334.415000", "161336.415000", "161338.415000", "161340.415000", "161342.415000", "161344.415000", "161346.415000", "161348.415000", "161350.415000", "161352.415000", "161354.415000", "161356.415000", "161358.415000", "161400.415000", "161402.415000", "161404.415000", "161406.415000", "161408.415000", "161410.415000", "161412.415000", "161414.415000", "161416.415000", "161418.415000", "161420.415000", "161422.415000", "161424.415000", "161426.415000", "161428.415000", "161430.415000", "161432.415000", "161434.415000", "161436.415000", "161438.415000", "161440.415000", "161442.415000", "161444.415000", "161446.415000", "161448.415000", "161450.415000", "161452.415000", "161454.415000", "161456.415000", "161458.415000", "161500.415000", "161502.415000", "161504.415000", "161506.415000", "161508.415000", "161510.415000", "161512.415000", "161514.415000", "161516.415000", "161518.415000", "161520.415000", "161522.415000", "161524.415000", "161526.415000", "161528.415000", "161530.415000", "161532.415000", "161534.415000", "161536.415000", "161538.415000", "161540.415000", "161542.415000", "161544.415000", "161546.415000", "161548.415000", "161550.415000", "161552.415000", "161554.415000", "161556.415000", "161558.415000", "161600.415000", "161602.415000", "161604.415000", "161606.415000", "161608.415000", "161610.415000", "161612.415000", "161614.415000", "161616.415000", "161618.415000", "161620.415000", "161622.415000", "161624.415000", "161626.415000", "161628.415000", "161630.415000", "161632.415000", "161634.415000", "161636.415000", "161638.415000", "161640.415000", "161642.415000", "161644.415000", "161646.415000", "161648.415000", "161650.415000", "161652.415000", "161654.415000", "161656.415000", "161658.415000", "161700.415000", "161702.415000", "161704.415000", "161706.415000", "161708.415000", "161710.415000", "161712.415000", "161714.415000", "161716.415000", "161718.415000", "161720.415000", "161722.415000", "161724.415000", "161726.415000", "161728.415000", "161730.415000", "161732.415000", "161734.415000", "161736.415000", "161738.415000", "161740.415000", "161742.415000", "161744.415000", "161746.415000", "161748.415000", "161750.415000", "161752.415000", "161754.415000", "161756.415000", "161758.415000", "161800.415000", "161802.415000", "161804.415000", "161806.415000", "161808.415000", "161810.415000", "161812.415000", "161814.415000", "161816.415000", "161818.415000", "161820.415000", "161822.415000", "161824.415000", "161826.415000", "161828.415000", "161830.415000", "161832.415000", "161834.415000", "161836.415000", "161838.415000", "161840.415000", "161842.415000", "161844.415000", "161846.415000", "161848.415000", "161850.415000", "161852.415000", "161854.415000", "161856.415000", "161858.415000", "161900.415000", "161902.415000", "161904.415000", "161906.415000", "161908.415000", "161910.415000", "161912.415000", "161914.415000", "161916.415000", "161918.415000", "161920.415000", "161922.415000", "161924.415000", "161926.415000", "161928.415000", "161930.415000", "161932.415000", "161934.415000", "161936.415000", "161938.415000", "161940.415000", "161942.415000", "161944.415000", "161946.415000", "161948.415000", "161950.415000", "161952.415000", "161954.415000", "161956.415000", "161958.415000", "162000.415000", "162002.415000", "162004.415000", "162006.415000", "162008.415000", "162010.415000", "162012.415000", "162014.415000", "162016.415000", "162018.415000", "162020.415000", "162022.415000", "162024.415000", "162026.415000", "162028.415000", "162030.415000", "162032.415000", "162034.415000", "162036.415000", "162038.415000", "162040.415000", "162042.415000", "162044.415000", "162046.415000", "162048.415000", "162050.415000", "162052.415000", "162054.415000", "162056.415000", "162058.415000", "162100.415000", "162102.415000", "162104.415000", "162106.415000", "162108.415000", "162110.415000", "162112.415000", "162114.415000", "162116.415000", "162118.415000", "162120.415000", "162122.415000", "162124.415000", "162126.415000", "162128.415000", "162130.415000", "162132.415000", "162134.415000", "162136.415000", "162138.415000", "162140.415000", "162142.415000", "162144.415000", "162146.415000", "162148.415000", "162150.415000", "162152.415000", "162154.415000", "162156.415000", "162158.415000", "162200.415000", "162202.415000", "162204.415000", "162206.415000", "162208.415000", "162210.415000", "162212.415000", "162214.415000", "162216.415000", "162218.415000", "162220.415000", "162222.415000", "162224.415000", "162226.415000", "162228.415000", "162230.415000", "162232.415000", "162234.415000", "162236.415000", "162238.415000", "162240.415000", "162242.415000", "162244.415000", "162246.415000", "162248.415000", "162250.415000", "162252.415000", "162254.415000", "162256.415000", "162258.415000", "162300.415000", "162302.415000", "162304.415000", "162306.415000", "162308.415000", "162310.415000", "162312.415000", "162314.415000", "162316.415000", "162318.415000", "162320.415000", "162322.415000", "162324.415000", "162326.415000", "162328.415000", "162330.415000", "162332.415000", "162334.415000", "162336.415000", "162338.415000", "162340.415000", "162342.415000", "162344.415000", "162346.415000", "162348.415000", "162350.415000", "162352.415000", "162354.415000", "162356.415000", "162358.415000", "162400.415000", "162402.415000", "162404.415000", "162406.415000", "162408.415000", "162410.415000", "162412.415000", "162414.415000", "162416.415000", "162418.415000", "162420.415000", "162422.415000", "162424.415000", "162426.415000", "162428.415000", "162430.415000", "162432.415000", "162434.415000", "162436.415000", "162438.415000", "162440.415000", "162442.415000", "162444.415000", "162446.415000", "162448.415000", "162450.415000", "162452.415000", "162454.415000", "162456.415000", "162458.415000", "162500.415000", "162502.415000", "162504.415000", "162506.415000", "162508.415000", "162510.415000", "162512.415000", "162514.415000", "162516.415000", "162518.415000", "162520.415000", "162522.415000", "162524.415000", "162526.415000", "162528.415000", "162530.415000", "162532.415000", "162534.415000", "162536.415000", "162538.415000", "162540.415000", "162542.415000", "162544.415000", "162546.415000", "162548.415000", "162550.415000", "162552.415000", "162554.415000", "162556.415000", "162558.415000", "162600.415000", "162602.415000", "162604.415000", "162606.415000", "162608.415000", "162610.415000", "162612.415000", "162614.415000", "162616.415000", "162618.415000", "162620.415000", "162622.415000", "162624.415000", "162626.415000", "162628.415000", "162630.415000", "162632.415000", "162634.415000", "162636.415000", "162638.415000", "162640.415000", "162642.415000", "162644.415000", "162646.415000", "162648.415000", "162650.415000", "162652.415000", "162654.415000", "162656.415000", "162658.415000", "162700.415000", "162702.415000", "162704.415000", "162706.415000", "162708.415000", "162710.415000", "162712.415000", "162714.415000", "162716.415000", "162718.415000", "162720.415000", "162722.415000", "162724.415000", "162726.415000", "162728.415000", "162730.415000", "162732.415000", "162734.415000", "162736.415000", "162738.415000", "162740.415000", "162742.415000", "162744.415000", "162746.415000", "162748.415000", "162750.415000", "162752.415000", "162754.415000", "162756.415000", "162758.415000", "162800.415000", "162802.415000", "162804.415000", "162806.415000", "162808.415000", "162810.415000", "162812.415000", "162814.415000", "162816.415000", "162818.415000", "162820.415000", "162822.415000", "162824.415000", "162826.415000", "162828.415000", "162830.415000", "162832.415000", "162834.415000", "162836.415000", "162838.415000", "162840.415000", "162842.415000", "162844.415000", "162846.415000", "162848.415000", "162850.415000", "162852.415000", "162854.415000", "162856.415000", "162858.415000", "162900.415000", "162902.415000", "162904.415000", "162906.415000", "162908.415000", "162910.415000", "162912.415000", "162914.415000", "162916.415000", "162918.415000", "162920.415000", "162922.415000", "162924.415000", "162926.415000", "162928.415000", "162930.415000", "162932.415000", "162934.415000", "162936.415000", "162938.415000", "162940.415000", "162942.415000", "162944.415000", "162946.415000", "162948.415000", "162950.415000", "162952.415000", "162954.415000", "162956.415000", "162958.415000", "163000.415000", "163002.415000", "163004.415000", "163006.415000", "163008.415000", "163010.415000", "163012.415000", "163014.415000", "163016.415000", "163018.415000", "163020.415000", "163022.415000", "163024.415000", "163026.415000", "163028.415000", "163030.415000", "163032.415000", "163034.415000", "163036.415000", "163038.415000", "163040.415000", "163042.415000", "163044.415000", "163046.415000", "163048.415000", "163050.415000", "163052.415000", "163054.415000", "163056.415000", "163058.415000", "163100.415000", "163102.415000", "163104.415000", "163106.415000", "163108.415000", "163110.415000", "163112.415000", "163114.415000", "163116.415000", "163118.415000", "163120.415000", "163122.415000", "163124.415000", "163126.415000", "163128.415000", "163130.415000", "163132.415000", "163134.415000", "163136.415000", "163138.415000", "163140.415000", "163142.415000", "163144.415000", "163146.415000", "163148.415000", "163150.415000", "163152.415000", "163154.415000", "163156.415000", "163158.415000", "163200.415000", "163202.415000", "163204.415000", "163206.415000", "163208.415000", "163210.415000", "163212.415000", "163214.415000", "163216.415000", "163218.415000", "163220.415000", "163222.415000", "163224.415000",