{
  "AcquisitionMatrixPE": 80,
  "AcquisitionNumber": 1,
  "AcquisitionTime": "21:24:49.332500",
  "BandwidthPerPixelPhaseEncode": 51.02,
  "BaseResolution": 80,
  "BodyPartExamined": "BRAIN",
  "ConsistencyInfo": "N4_VE11C_LATEST_20160120",
  "ConversionSoftware": "dcm2niix",
  "ConversionSoftwareVersion": "v1.0.20170923 (OpenJPEG build) GCC6.3.0",
  "DerivedVendorReportedEchoSpacing": 0.000490004,
  "DeviceSerialNumber": "66112",
  "DwellTime": 2.2e-06,
  "EchoTime": 0.025,
  "EchoTrainLength": 39,
  "EffectiveEchoSpacing": 0.000245002,
  "FlipAngle": 75,
  "ImageType": [
    "ORIGINAL",
    "PRIMARY",
    "FMRI",
    "NONE",
    "ND",
    "NORM",
    "MOSAIC"
],
  "InstitutionAddress": "Maynard_3_Hanover_NH_US_03755",
  "InstitutionName": "Dartmouth_College_-_PBS",
  "MagneticFieldStrength": 3,
  "Manufacturer": "Siemens",
  "ManufacturersModelName": "Prisma",
  "Modality": "MR",
  "ParallelReductionFactorInPlane": 2,
  "PartialFourier": 1,
  "PercentPhaseFOV": 100,
  "PhaseEncodingDirection": "j-",
  "PhaseEncodingSteps": 79,
  "PhaseResolution": 1,
  "ProcedureStepDescription": "Chang_Chang_1039_fnlpilot",
  "ProtocolName": "func_run-01_task-movie",
  "PulseSequenceDetails": "%SiemensSeq%_ep2d_bold",
  "ReceiveCoilActiveElements": "HEA;HEP",
  "ReceiveCoilName": "Head_32",
  "ReconMatrixPE": 80,
  "RepetitionTime": 2,
  "ScanOptions": "FS",
  "ScanningSequence": "EP",
  "SequenceName": "_epfid2d1_80",
  "SequenceVariant": "SK",
  "SeriesDescription": "func_run-01_task-movie",
  "SliceTiming": [0.99, 0, 1.04, 0.05, 1.0875, 0.0975, 1.1375, 0.1475, 1.1875, 0.1975, 1.2375, 0.2475, 1.2875, 0.2975, 1.335, 0.345, 1.385, 0.395, 1.435, 0.445, 1.485, 0.495, 1.535, 0.545, 1.5825, 0.5925, 1.6325, 0.6425, 1.6825, 0.6925, 1.7325, 0.7425, 1.7825, 0.7925, 1.83, 0.84, 1.88, 0.89, 1.93, 0.94],
  "SoftwareVersions": "syngo_MR_E11",
  "StationName": "AWP66112",
  "TaskName": "movie",
  "TotalReadoutTime": 0.0193552,
  "dcmmeta_affine": [
    [-2.998260021209717, 0.09998630732297897, 0.020956847816705704, 118.15476989746094],
    [0.10215601325035095, 2.929741859436035, 0.6373201608657837, -115.62945556640625],
    [-0.0007750463555566967, -0.6376641988754272, 2.9314472675323486, -11.376065254211426],
    [0.0, 0.0, 0.0, 1.0]
],
  "dcmmeta_reorient_transform": [
    [0.0, -1.0, 0.0, 79.0],
    [1.0, 0.0, 0.0, 0.0],
    [0.0, 0.0, 1.0, 0.0],
    [0.0, 0.0, 0.0, 1.0]
],
  "dcmmeta_shape": [80, 80, 40, 1369],
  "dcmmeta_slice_dim": 2,
  "dcmmeta_version": 0.6,
  "global": {
    "const": {
      "AccessionNumber": "A001148",
      "AcquisitionMatrix": [80, 0, 0, 80],
      "AngioFlag": "N",
      "BitsAllocated": 16,
      "BitsStored": 12,
      "BodyPartExamined": "BRAIN",
      "Columns": 560,
      "EchoNumbers": 1,
      "EchoTime": 25.0,
      "EchoTrainLength": 39,
      "FlipAngle": 75.0,
      "HighBit": 11,
      "ImageOrientationPatient": [0.99942002895135, -0.0340520041523, -0.0002583487817, 0.03332876982044, 0.97658060578238, 0.21255473062712],
      "ImagePositionPatient": [-869.63282271726, -794.44073903618, -214.60493120918],
      "ImageType": [
        "ORIGINAL",
        "PRIMARY",
        "FMRI",
        "NONE",
        "ND",
        "NORM",
        "MOSAIC"
],
      "ImagedNucleus": "1H",
      "ImagingFrequency": 123.252254,
      "InPlanePhaseEncodingDirection": "COL",
      "MRAcquisitionType": "2D",
      "MagneticFieldStrength": 3.0,
      "Manufacturer": "SIEMENS",
      "ManufacturerModelName": "Prisma",
      "Modality": "MR",
      "NumberOfAverages": 1.0,
      "NumberOfPhaseEncodingSteps": 79,
      "PercentPhaseFieldOfView": 100.0,
      "PercentSampling": 100.0,
      "PerformedProcedureStepStartTime": "210844.655000",
      "PhotometricInterpretation": "MONOCHROME2",
      "PixelBandwidth": 2840.0,
      "PixelRepresentation": 0,
      "PixelSpacing": [3.0, 3.0],
      "PositionReferenceIndicator": "",
      "ProtocolName": "func_run-01_task-movie",
      "RepetitionTime": 2000.0,
      "Rows": 560,
      "SAR": 0.10150163832057,
      "SamplesPerPixel": 1,
      "ScanOptions": "FS",
      "ScanningSequence": "EP",
      "SequenceName": "*epfid2d1_80",
      "SequenceVariant": "SK",
      "SeriesDescription": "func_run-01_task-movie",
      "SeriesNumber": 6,
      "SeriesTime": "212450.418000",
      "SliceLocation": -34.855057824515,
      "SliceThickness": 3.0,
      "SmallestImagePixelValue": 0,
      "SoftwareVersions": "syngo MR E11",
      "SpacingBetweenSlices": 2.9999999692927,
      "SpecificCharacterSet": "ISO_IR 100",
      "StudyID": "1",
      "StudyTime": "210844.601000",
      "TransmitCoilName": "Body",
      "VariableFlipAngleFlag": "N",
      "WindowCenterWidthExplanation": "Algo1",
      "dBdt": 0.0},
    "slices": {}
  },
  "time": {
    "samples": {
      "AcquisitionNumber": [1, 2, 3, 4, 5, 6, 7, 8, 9, 10, 11, 12, 13, 14, 15, 16, 17, 18, 19, 20, 21, 22, 23, 24, 25, 26, 27, 28, 29, 30, 31, 32, 33, 34, 35, 36, 37, 38, 39, 40, 41, 42, 43, 44, 45, 46, 47, 48, 49, 50, 51, 52, 53, 54, 55, 56, 57, 58, 59, 60, 61, 62, 63, 64, 65, 66, 67, 68, 69, 70, 71, 72, 73, 74, 75, 76, 77, 78, 79, 80, 81, 82, 83, 84, 85, 86, 87, 88, 89, 90, 91, 92, 93, 94, 95, 96, 97, 98, 99, 100, 101, 102, 103, 104, 105, 106, 107, 108, 109, 110, 111, 112, 113, 114, 115, 116, 117, 118, 119, 120, 121, 122, 123, 124, 125, 126, 127, 128, 129, 130, 131, 132, 133, 134, 135, 136, 137, 138, 139, 140, 141, 142, 143, 144, 145, 146, 147, 148, 149, 150, 151, 152, 153, 154, 155, 156, 157, 158, 159, 160, 161, 162, 163, 164, 165, 166, 167, 168, 169, 170, 171, 172, 173, 174, 175, 176, 177, 178, 179, 180, 181, 182, 183, 184, 185, 186, 187, 188, 189, 190, 191, 192, 193, 194, 195, 196, 197, 198, 199, 200, 201, 202, 203, 204, 205, 206, 207, 208, 209, 210, 211, 212, 213, 214, 215, 216, 217, 218, 219, 220, 221, 222, 223, 224, 225, 226, 227, 228, 229, 230, 231, 232, 233, 234, 235, 236, 237, 238, 239, 240, 241, 242, 243, 244, 245, 246, 247, 248, 249, 250, 251, 252, 253, 254, 255, 256, 257, 258, 259, 260, 261, 262, 263, 264, 265, 266, 267, 268, 269, 270, 271, 272, 273, 274, 275, 276, 277, 278, 279, 280, 281, 282, 283, 284, 285, 286, 287, 288, 289, 290, 291, 292, 293, 294, 295, 296, 297, 298, 299, 300, 301, 302, 303, 304, 305, 306, 307, 308, 309, 310, 311, 312, 313, 314, 315, 316, 317, 318, 319, 320, 321, 322, 323, 324, 325, 326, 327, 328, 329, 330, 331, 332, 333, 334, 335, 336, 337, 338, 339, 340, 341, 342, 343, 344, 345, 346, 347, 348, 349, 350, 351, 352, 353, 354, 355, 356, 357, 358, 359, 360, 361, 362, 363, 364, 365, 366, 367, 368, 369, 370, 371, 372, 373, 374, 375, 376, 377, 378, 379, 380, 381, 382, 383, 384, 385, 386, 387, 388, 389, 390, 391, 392, 393, 394, 395, 396, 397, 398, 399, 400, 401, 402, 403, 404, 405, 406, 407, 408, 409, 410, 411, 412, 413, 414, 415, 416, 417, 418, 419, 420, 421, 422, 423, 424, 425, 426, 427, 428, 429, 430, 431, 432, 433, 434, 435, 436, 437, 438, 439, 440, 441, 442, 443, 444, 445, 446, 447, 448, 449, 450, 451, 452, 453, 454, 455, 456, 457, 458, 459, 460, 461, 462, 463, 464, 465, 466, 467, 468, 469, 470, 471, 472, 473, 474, 475, 476, 477, 478, 479, 480, 481, 482, 483, 484, 485, 486, 487, 488, 489, 490, 491, 492, 493, 494, 495, 496, 497, 498, 499, 500, 501, 502, 503, 504, 505, 506, 507, 508, 509, 510, 511, 512, 513, 514, 515, 516, 517, 518, 519, 520, 521, 522, 523, 524, 525, 526, 527, 528, 529, 530, 531, 532, 533, 534, 535, 536, 537, 538, 539, 540, 541, 542, 543, 544, 545, 546, 547, 548, 549, 550, 551, 552, 553, 554, 555, 556, 557, 558, 559, 560, 561, 562, 563, 564, 565, 566, 567, 568, 569, 570, 571, 572, 573, 574, 575, 576, 577, 578, 579, 580, 581, 582, 583, 584, 585, 586, 587, 588, 589, 590, 591, 592, 593, 594, 595, 596, 597, 598, 599, 600, 601, 602, 603, 604, 605, 606, 607, 608, 609, 610, 611, 612, 613, 614, 615, 616, 617, 618, 619, 620, 621, 622, 623, 624, 625, 626, 627, 628, 629, 630, 631, 632, 633, 634, 635, 636, 637, 638, 639, 640, 641, 642, 643, 644, 645, 646, 647, 648, 649, 650, 651, 652, 653, 654, 655, 656, 657, 658, 659, 660, 661, 662, 663, 664, 665, 666, 667, 668, 669, 670, 671, 672, 673, 674, 675, 676, 677, 678, 679, 680, 681, 682, 683, 684, 685, 686, 687, 688, 689, 690, 691, 692, 693, 694, 695, 696, 697, 698, 699, 700, 701, 702, 703, 704, 705, 706, 707, 708, 709, 710, 711, 712, 713, 714, 715, 716, 717, 718, 719, 720, 721, 722, 723, 724, 725, 726, 727, 728, 729, 730, 731, 732, 733, 734, 735, 736, 737, 738, 739, 740, 741, 742, 743, 744, 745, 746, 747, 748, 749, 750, 751, 752, 753, 754, 755, 756, 757, 758, 759, 760, 761, 762, 763, 764, 765, 766, 767, 768, 769, 770, 771, 772, 773, 774, 775, 776, 777, 778, 779, 780, 781, 782, 783, 784, 785, 786, 787, 788, 789, 790, 791, 792, 793, 794, 795, 796, 797, 798, 799, 800, 801, 802, 803, 804, 805, 806, 807, 808, 809, 810, 811, 812, 813, 814, 815, 816, 817, 818, 819, 820, 821, 822, 823, 824, 825, 826, 827, 828, 829, 830, 831, 832, 833, 834, 835, 836, 837, 838, 839, 840, 841, 842, 843, 844, 845, 846, 847, 848, 849, 850, 851, 852, 853, 854, 855, 856, 857, 858, 859, 860, 861, 862, 863, 864, 865, 866, 867, 868, 869, 870, 871, 872, 873, 874, 875, 876, 877, 878, 879, 880, 881, 882, 883, 884, 885, 886, 887, 888, 889, 890, 891, 892, 893, 894, 895, 896, 897, 898, 899, 900, 901, 902, 903, 904, 905, 906, 907, 908, 909, 910, 911, 912, 913, 914, 915, 916, 917, 918, 919, 920, 921, 922, 923, 924, 925, 926, 927, 928, 929, 930, 931, 932, 933, 934, 935, 936, 937, 938, 939, 940, 941, 942, 943, 944, 945, 946, 947, 948, 949, 950, 951, 952, 953, 954, 955, 956, 957, 958, 959, 960, 961, 962, 963, 964, 965, 966, 967, 968, 969, 970, 971, 972, 973, 974, 975, 976, 977, 978, 979, 980, 981, 982, 983, 984, 985, 986, 987, 988, 989, 990, 991, 992, 993, 994, 995, 996, 997, 998, 999, 1000, 1001, 1002, 1003, 1004, 1005, 1006, 1007, 1008, 1009, 1010, 1011, 1012, 1013, 1014, 1015, 1016, 1017, 1018, 1019, 1020, 1021, 1022, 1023, 1024, 1025, 1026, 1027, 1028, 1029, 1030, 1031, 1032, 1033, 1034, 1035, 1036, 1037, 1038, 1039, 1040, 1041, 1042, 1043, 1044, 1045, 1046, 1047, 1048, 1049, 1050, 1051, 1052, 1053, 1054, 1055, 1056, 1057, 1058, 1059, 1060, 1061, 1062, 1063, 1064, 1065, 1066, 1067, 1068, 1069, 1070, 1071, 1072, 1073, 1074, 1075, 1076, 1077, 1078, 1079, 1080, 1081, 1082, 1083, 1084, 1085, 1086, 1087, 1088, 1089, 1090, 1091, 1092, 1093, 1094, 1095, 1096, 1097, 1098, 1099, 1100, 1101, 1102, 1103, 1104, 1105, 1106, 1107, 1108, 1109, 1110, 1111, 1112, 1113, 1114, 1115, 1116, 1117, 1118, 1119, 1120, 1121, 1122, 1123, 1124, 1125, 1126, 1127, 1128, 1129, 1130, 1131, 1132, 1133, 1134, 1135, 1136, 1137, 1138, 1139, 1140, 1141, 1142, 1143, 1144, 1145, 1146, 1147, 1148, 1149, 1150, 1151, 1152, 1153, 1154, 1155, 1156, 1157, 1158, 1159, 1160, 1161, 1162, 1163, 1164, 1165, 1166, 1167, 1168, 1169, 1170, 1171, 1172, 1173, 1174, 1175, 1176, 1177, 1178, 1179, 1180, 1181, 1182, 1183, 1184, 1185, 1186, 1187, 1188, 1189, 1190, 1191, 1192, 1193, 1194, 1195, 1196, 1197, 1198, 1199, 1200, 1201, 1202, 1203, 1204, 1205, 1206, 1207, 1208, 1209, 1210, 1211, 1212, 1213, 1214, 1215, 1216, 1217, 1218, 1219, 1220, 1221, 1222, 1223, 1224, 1225, 1226, 1227, 1228, 1229, 1230, 1231, 1232, 1233, 1234, 1235, 1236, 1237, 1238, 1239, 1240, 1241, 1242, 1243, 1244, 1245, 1246, 1247, 1248, 1249, 1250, 1251, 1252, 1253, 1254, 1255, 1256, 1257, 1258, 1259, 1260, 1261, 1262, 1263, 1264, 1265, 1266, 1267, 1268, 1269, 1270, 1271, 1272, 1273, 1274, 1275, 1276, 1277, 1278, 1279, 1280, 1281, 1282, 1283, 1284, 1285, 1286, 1287, 1288, 1289, 1290, 1291, 1292, 1293, 1294, 1295, 1296, 1297, 1298, 1299, 1300, 1301, 1302, 1303, 1304, 1305, 1306, 1307, 1308, 1309, 1310, 1311, 1312, 1313, 1314, 1315, 1316, 1317, 1318, 1319, 1320, 1321, 1322, 1323, 1324, 1325, 1326, 1327, 1328, 1329, 1330, 1331, 1332, 1333, 1334, 1335, 1336, 1337, 1338, 1339, 1340, 1341, 1342, 1343, 1344, 1345, 1346, 1347, 1348, 1349, 1350, 1351, 1352, 1353, 1354, 1355, 1356, 1357, 1358, 1359, 1360, 1361, 1362, 1363, 1364, 1365, 1366, 1367, 1368, 1369],
      "AcquisitionTime": ["212449.332500", "212451.332500", "212453.332500", "212455.332500", "212457.332500", "212459.332500", "212501.332500", "212503.332500", "212505.332500", "212507.332500", "212509.332500", "212511.332500", "212513.332500", "212515.332500", "212517.332500", "212519.332500", "212521.332500", "212523.332500", "212525.332500", "212527.332500", "212529.332500", "212531.332500", "212533.332500", "212535.332500", "212537.332500", "212539.332500", "212541.332500", "212543.332500", "212545.332500", "212547.332500", "212549.332500", "212551.332500", "212553.332500", "212555.332500", "212557.332500", "212559.332500", "212601.332500", "212603.332500", "212605.332500", "212607.332500", "212609.332500", "212611.332500", "212613.332500", "212615.332500", "212617.332500", "212619.332500", "212621.332500", "212623.332500", "212625.332500", "212627.332500", "212629.332500", "212631.332500", "212633.332500", "212635.332500", "212637.332500", "212639.332500", "212641.332500", "212643.332500", "212645.332500", "212647.332500", "212649.332500", "212651.332500", "212653.332500", "212655.332500", "212657.332500", "212659.332500", "212701.332500", "212703.332500", "212705.332500", "212707.332500", "212709.332500", "212711.332500", "212713.332500", "212715.332500", "212717.332500", "212719.332500", "212721.332500", "212723.332500", "212725.332500", "212727.332500", "212729.332500", "212731.332500", "212733.332500", "212735.332500", "212737.332500", "212739.332500", "212741.332500", "212743.332500", "212745.332500", "212747.332500", "212749.332500", "212751.332500", "212753.332500", "212755.332500", "212757.332500", "212759.332500", "212801.332500", "212803.332500", "212805.332500", "212807.332500", "212809.332500", "212811.332500", "212813.332500", "212815.332500", "212817.332500", "212819.332500", "212821.332500", "212823.332500", "212825.332500", "212827.332500", "212829.332500", "212831.332500", "212833.332500", "212835.332500", "212837.332500", "212839.332500", "212841.332500", "212843.332500", "212845.332500", "212847.332500", "212849.332500", "212851.332500", "212853.332500", "212855.332500", "212857.332500", "212859.332500", "212901.332500", "212903.332500", "212905.332500", "212907.332500", "212909.332500", "212911.332500", "212913.332500", "212915.332500", "212917.332500", "212919.332500", "212921.332500", "212923.332500", "212925.332500", "212927.332500", "212929.332500", "212931.332500", "212933.332500", "212935.332500", "212937.332500", "212939.332500", "212941.332500", "212943.332500", "212945.332500", "212947.332500", "212949.332500", "212951.332500", "212953.332500", "212955.332500", "212957.332500", "212959.332500", "213001.332500", "213003.332500", "213005.332500", "213007.332500", "213009.332500", "213011.332500", "213013.332500", "213015.332500", "213017.332500", "213019.332500", "213021.332500", "213023.332500", "213025.332500", "213027.332500", "213029.332500", "213031.332500", "213033.332500", "213035.332500", "213037.332500", "213039.332500", "213041.332500", "213043.332500", "213045.332500", "213047.332500", "213049.332500", "213051.332500", "213053.332500", "213055.332500", "213057.332500", "213059.332500", "213101.332500", "213103.332500", "213105.332500", "213107.332500", "213109.332500", "213111.332500", "213113.332500", "213115.332500", "213117.332500", "213119.332500", "213121.332500", "213123.332500", "213125.332500", "213127.332500", "213129.332500", "213131.332500", "213133.332500", "213135.332500", "213137.332500", "213139.332500", "213141.332500", "213143.332500", "213145.332500", "213147.332500", "213149.332500", "213151.332500", "213153.332500", "213155.332500", "213157.332500", "213159.332500", "213201.332500", "213203.332500", "213205.332500", "213207.332500", "213209.332500", "213211.332500", "213213.332500", "213215.332500", "213217.332500", "213219.332500", "213221.332500", "213223.332500", "213225.332500", "213227.332500", "213229.332500", "213231.332500", "213233.332500", "213235.332500", "213237.332500", "213239.332500", "213241.332500", "213243.332500", "213245.332500", "213247.332500", "213249.332500", "213251.332500", "213253.332500", "213255.332500", "213257.332500", "213259.332500", "213301.332500", "213303.332500", "213305.332500", "213307.332500", "213309.332500", "213311.332500", "213313.332500", "213315.332500", "213317.332500", "213319.332500", "213321.332500", "213323.332500", "213325.332500", "213327.332500", "213329.332500", "213331.332500", "213333.332500", "213335.332500", "213337.332500", "213339.332500", "213341.332500", "213343.332500", "213345.332500", "213347.332500", "213349.332500", "213351.332500", "213353.332500", "213355.332500", "213357.332500", "213359.332500", "213401.332500", "213403.332500", "213405.332500", "213407.332500", "213409.332500", "213411.332500", "213413.332500", "213415.332500", "213417.332500", "213419.332500", "213421.332500", "213423.332500", "213425.332500", "213427.332500", "213429.332500", "213431.332500", "213433.332500", "213435.332500", "213437.332500", "213439.332500", "213441.332500", "213443.332500", "213445.332500", "213447.332500", "213449.332500", "213451.332500", "213453.332500", "213455.332500", "213457.332500", "213459.332500", "213501.332500", "213503.332500", "213505.332500", "213507.332500", "213509.332500", "213511.332500", "213513.332500", "213515.332500", "213517.332500", "213519.332500", "213521.332500", "213523.332500", "213525.332500", "213527.332500", "213529.332500", "213531.332500", "213533.332500", "213535.332500", "213537.332500", "213539.332500", "213541.332500", "213543.332500", "213545.332500", "213547.332500", "213549.332500", "213551.332500", "213553.332500", "213555.332500", "213557.332500", "213559.332500", "213601.332500", "213603.332500", "213605.332500", "213607.332500", "213609.332500", "213611.332500", "213613.332500", "213615.332500", "213617.332500", "213619.332500", "213621.332500", "213623.332500", "213625.332500", "213627.332500", "213629.332500", "213631.332500", "213633.332500", "213635.332500", "213637.332500", "213639.332500", "213641.332500", "213643.332500", "213645.332500", "213647.332500", "213649.332500", "213651.332500", "213653.332500", "213655.332500", "213657.332500", "213659.332500", "213701.332500", "213703.332500", "213705.332500", "213707.332500", "213709.332500", "213711.332500", "213713.332500", "213715.332500", "213717.332500", "213719.332500", "213721.332500", "213723.332500", "213725.332500", "213727.332500", "213729.332500", "213731.332500", "213733.332500", "213735.332500", "213737.332500", "213739.332500", "213741.332500", "213743.332500", "213745.332500", "213747.332500", "213749.332500", "213751.332500", "213753.332500", "213755.332500", "213757.332500", "213759.332500", "213801.332500", "213803.332500", "213805.332500", "213807.332500", "213809.332500", "213811.332500", "213813.332500", "213815.332500", "213817.332500", "213819.332500", "213821.332500", "213823.332500", "213825.332500", "213827.332500", "213829.332500", "213831.332500", "213833.332500", "213835.332500", "213837.332500", "213839.332500", "213841.332500", "213843.332500", "213845.332500", "213847.332500", "213849.332500", "213851.332500", "213853.332500", "213855.332500", "213857.332500", "213859.332500", "213901.332500", "213903.332500", "213905.332500", "213907.332500", "213909.332500", "213911.332500", "213913.332500", "213915.332500", "213917.332500", "213919.332500", "213921.332500", "213923.332500", "213925.332500", "213927.332500", "213929.332500", "213931.332500", "213933.332500", "213935.332500", "213937.332500", "213939.332500", "213941.332500", "213943.332500", "213945.332500", "213947.332500", "213949.332500", "213951.332500", "213953.332500", "213955.332500", "213957.332500", "213959.332500", "214001.332500", "214003.332500", "214005.332500", "214007.332500", "214009.332500", "214011.332500", "214013.332500", "214015.332500", "214017.332500", "214019.332500", "214021.332500", "214023.332500", "214025.332500", "214027.332500", "214029.332500", "214031.332500", "214033.332500", "214035.332500", "214037.332500", "214039.332500", "214041.332500", "214043.332500", "214045.332500", "214047.332500", "214049.332500", "214051.332500", "214053.332500", "214055.332500", "214057.332500", "214059.332500", "214101.332500", "214103.332500", "214105.332500", "214107.332500", "214109.332500", "214111.332500", "214113.332500", "214115.332500", "214117.332500", "214119.332500", "214121.332500", "214123.332500", "214125.332500", "214127.332500", "214129.332500", "214131.332500", "214133.332500", "214135.332500", "214137.332500", "214139.332500", "214141.332500", "214143.332500", "214145.332500", "214147.332500", "214149.332500", "214151.332500", "214153.332500", "214155.332500", "214157.332500", "214159.332500", "214201.332500", "214203.332500", "214205.332500", "214207.332500", "214209.332500", "214211.332500", "214213.332500", "214215.332500", "214217.332500", "214219.332500", "214221.332500", "214223.332500", "214225.332500", "214227.332500", "214229.332500", "214231.332500", "214233.332500", "214235.332500", "214237.332500", "214239.332500", "214241.332500", "214243.332500", "214245.332500", "214247.332500", "214249.332500", "214251.332500", "214253.332500", "214255.332500", "214257.332500", "214259.332500", "214301.332500", "214303.332500", "214305.332500", "214307.332500", "214309.332500", "214311.332500", "214313.332500", "214315.332500", "214317.332500", "214319.332500", "214321.332500", "214323.332500", "214325.332500", "214327.332500", "214329.332500", "214331.332500", "214333.332500", "214335.332500", "214337.332500", "214339.332500", "214341.332500", "214343.332500", "214345.332500", "214347.332500", "214349.332500", "214351.332500", "214353.332500", "214355.332500", "214357.332500", "214359.332500", "214401.332500", "214403.332500", "214405.332500", "214407.332500", "214409.332500", "214411.332500", "214413.332500", "214415.332500", "214417.332500", "214419.332500", "214421.332500", "214423.332500", "214425.332500", "214427.332500", "214429.332500", "214431.332500", "214433.332500", "214435.332500", "214437.332500", "214439.332500", "214441.332500", "214443.332500", "214445.332500", "214447.332500", "214449.332500", "214451.332500", "214453.332500", "214455.332500", "214457.332500", "214459.332500", "214501.332500", "214503.332500", "214505.332500", "214507.332500", "214509.332500", "214511.332500", "214513.332500", "214515.332500", "214517.332500", "214519.332500", "214521.332500", "214523.332500", "214525.332500", "214527.332500", "214529.332500", "214531.332500", "214533.332500", "214535.332500", "214537.332500", "214539.332500", "214541.332500", "214543.332500", "214545.332500", "214547.332500", "214549.332500", "214551.332500", "214553.332500", "214555.332500", "214557.332500", "214559.332500", "214601.332500", "214603.332500", "214605.332500", "214607.332500", "214609.332500", "214611.332500", "214613.332500", "214615.332500", "214617.332500", "214619.332500", "214621.332500", "214623.332500", "214625.332500", "214627.332500", "214629.332500", "214631.332500", "214633.332500", "214635.332500", "214637.332500", "214639.332500", "214641.332500", "214643.332500", "214645.332500", "214647.332500", "214649.332500", "214651.332500", "214653.332500", "214655.332500", "214657.332500", "214659.332500", "214701.332500", "214703.332500", "214705.332500", "214707.332500", "214709.332500", "214711.332500", "214713.332500", "214715.332500", "214717.332500", "214719.332500", "214721.332500", "214723.332500", "214725.332500", "214727.332500", "214729.332500", "214731.332500", "214733.332500", "214735.332500", "214737.332500", "214739.332500", "214741.332500", "214743.332500", "214745.332500", "214747.332500", "214749.332500", "214751.332500", "214753.332500", "214755.332500", "214757.332500", "214759.332500", "214801.332500", "214803.332500", "214805.332500", "214807.332500", "214809.332500", "214811.332500", "214813.332500", "214815.332500", "214817.332500", "214819.332500", "214821.332500", "214823.332500", "214825.332500", "214827.332500", "214829.332500", "214831.332500", "214833.332500", "214835.332500", "214837.332500", "214839.332500", "214841.332500", "214843.332500", "214845.332500", "214847.332500", "214849.332500", "214851.332500", "214853.332500", "214855.332500", "214857.332500", "214859.332500", "214901.332500", "214903.332500", "214905.332500", "214907.332500", "214909.332500", "214911.332500", "214913.332500", "214915.332500", "214917.332500", "214919.332500", "214921.332500", "214923.332500", "214925.332500", "214927.332500", "214929.332500", "214931.332500", "214933.332500", "214935.332500", "214937.332500", "214939.332500", "214941.332500", "214943.332500", "214945.332500", "214947.332500", "214949.332500", "214951.332500", "214953.332500", "214955.332500", "214957.332500", "214959.332500", "215001.332500", "215003.332500", "215005.332500", "215007.332500", "215009.332500", "215011.332500", "215013.332500", "215015.332500", "215017.332500", "215019.332500", "215021.332500", "215023.332500", "215025.332500", "215027.332500", "215029.332500", "215031.332500", "215033.332500", "215035.332500", "215037.332500", "215039.332500", "215041.332500", "215043.332500", "215045.332500", "215047.332500", "215049.332500", "215051.332500", "215053.332500", "215055.332500", "215057.332500", "215059.332500", "215101.332500", "215103.332500", "215105.332500", "215107.332500", "215109.332500", "215111.332500", "215113.332500", "215115.332500", "215117.332500", "215119.332500", "215121.332500", "215123.332500", "215125.332500", "215127.332500", "215129.332500", "215131.332500", "215133.332500", "215135.332500", "215137.332500", "215139.332500", "215141.332500", "215143.332500", "215145.332500", "215147.332500", "215149.332500", "215151.332500", "215153.332500", "215155.332500", "215157.332500", "215159.332500", "215201.332500", "215203.332500", "215205.332500", "215207.332500", "215209.332500", "215211.332500", "215213.332500", "215215.332500", "215217.332500", "215219.332500", "215221.332500", "215223.332500", "215225.332500", "215227.332500", "215229.332500", "215231.332500", "215233.332500", "215235.332500", "215237.332500", "215239.332500", "215241.332500", "215243.332500", "215245.332500", "215247.332500", "215249.332500", "215251.332500", "215253.332500", "215255.332500", "215257.332500", "215259.332500", "215301.332500", "215303.332500", "215305.332500", "215307.332500", "215309.332500", "215311.332500", "215313.332500", "215315.332500", "215317.332500", "215319.332500", "215321.332500", "215323.332500", "215325.332500", "215327.332500", "215329.332500", "215331.332500", "215333.332500", "215335.332500", "215337.332500", "215339.332500", "215341.332500", "215343.332500", "215345.332500", "215347.332500", "215349.332500", "215351.332500", "215353.332500", "215355.332500", "215357.332500", "215359.332500", "215401.332500", "215403.332500", "215405.332500", "215407.332500", "215409.332500", "215411.332500", "215413.332500", "215415.332500", "215417.332500", "215419.332500", "215421.332500", "215423.332500", "215425.332500", "215427.332500", "215429.332500", "215431.332500", "215433.332500", "215435.332500", "215437.332500", "215439.332500", "215441.332500", "215443.332500", "215445.332500", "215447.332500", "215449.332500", "215451.332500", "215453.332500", "215455.332500", "215457.332500", "215459.332500", "215501.332500", "215503.332500", "215505.332500", "215507.332500", "215509.332500", "215511.332500", "215513.332500", "215515.332500", "215517.332500", "215519.332500", "215521.332500", "215523.332500", "215525.332500", "215527.332500", "215529.332500", "215531.332500", "215533.332500", "215535.332500", "215537.332500", "215539.332500", "215541.332500", "215543.332500", "215545.332500", "215547.332500", "215549.332500", "215551.332500", "215553.332500", "215555.332500", "215557.332500", "215559.332500", "215601.332500", "215603.332500", "215605.332500", "215607.332500", "215609.332500", "215611.332500", "215613.332500", "215615.332500", "215617.332500", "215619.332500", "215621.332500", "215623.332500", "215625.332500", "215627.332500", "215629.332500", "215631.332500", "215633.332500", "215635.332500", "215637.332500", "215639.332500", "215641.332500", "215643.332500", "215645.332500", "215647.332500", "215649.332500", "215651.332500", "215653.332500", "215655.332500", "215657.332500", "215659.332500", "215701.332500", "215703.332500", "215705.332500", "215707.332500", "215709.332500", "215711.332500", "215713.332500", "215715.332500", "215717.332500", "215719.332500", "215721.332500", "215723.332500", "215725.332500", "215727.332500", "215729.332500", "215731.332500", "215733.332500", "215735.332500", "215737.332500", "215739.332500", "215741.332500", "215743.332500", "215745.332500", "215747.332500", "215749.332500", "215751.332500", "215753.332500", "215755.332500", "215757.332500", "215759.332500", "215801.332500", "215803.332500", "215805.332500", "215807.332500", "215809.332500", "215811.332500", "215813.332500", "215815.332500", "215817.332500", "215819.332500", "215821.332500", "215823.332500", "215825.332500", "215827.332500", "215829.332500", "215831.332500", "215833.332500", "215835.332500", "215837.332500", "215839.332500", "215841.332500", "215843.332500", "215845.332500", "215847.332500", "215849.332500", "215851.332500", "215853.332500", "215855.332500", "215857.332500", "215859.332500", "215901.332500", "215903.332500", "215905.332500", "215907.332500", "215909.332500", "215911.332500", "215913.332500", "215915.332500", "215917.332500", "215919.332500", "215921.332500", "215923.332500", "215925.332500", "215927.332500", "215929.332500", "215931.332500", "215933.332500", "215935.332500", "215937.332500", "215939.332500", "215941.332500", "215943.332500", "215945.332500", "215947.332500", "215949.332500", "215951.332500", "215953.332500", "215955.332500", "215957.332500", "215959.332500", "220001.332500", "220003.332500", "220005.332500", "220007.332500", "220009.332500", "220011.332500", "220013.3