{
  "AcquisitionMatrixPE": 80,
  "AcquisitionNumber": 1,
  "AcquisitionTime": "18:25:43.672500",
  "BandwidthPerPixelPhaseEncode": 51.02,
  "BaseResolution": 80,
  "BodyPartExamined": "BRAIN",
  "ConsistencyInfo": "N4_VE11C_LATEST_20160120",
  "ConversionSoftware": "dcm2niix",
  "ConversionSoftwareVersion": "v1.0.20170923 (OpenJPEG build) GCC6.3.0",
  "DerivedVendorReportedEchoSpacing": 0.000490004,
  "DeviceSerialNumber": "66112",
  "DwellTime": 2.2e-06,
  "EchoTime": 0.025,
  "EchoTrainLength": 39,
  "EffectiveEchoSpacing": 0.000245002,
  "FlipAngle": 75,
  "ImageType": [
    "ORIGINAL",
    "PRIMARY",
    "FMRI",
    "NONE",
    "ND",
    "NORM",
    "MOSAIC"
],
  "InstitutionAddress": "Maynard_3_Hanover_NH_US_03755",
  "InstitutionName": "Dartmouth_College_-_PBS",
  "MagneticFieldStrength": 3,
  "Manufacturer": "Siemens",
  "ManufacturersModelName": "Prisma",
  "Modality": "MR",
  "ParallelReductionFactorInPlane": 2,
  "PartialFourier": 1,
  "PercentPhaseFOV": 100,
  "PhaseEncodingDirection": "j-",
  "PhaseEncodingSteps": 79,
  "PhaseResolution": 1,
  "ProcedureStepDescription": "Chang_Chang_1039_fnlpilot",
  "ProtocolName": "func_run-01_task-movie",
  "PulseSequenceDetails": "%SiemensSeq%_ep2d_bold",
  "ReceiveCoilActiveElements": "HEA;HEP",
  "ReceiveCoilName": "Head_32",
  "ReconMatrixPE": 80,
  "RepetitionTime": 2,
  "ScanOptions": "FS",
  "ScanningSequence": "EP",
  "SequenceName": "_epfid2d1_80",
  "SequenceVariant": "SK",
  "SeriesDescription": "func_run-01_task-movie",
  "SliceTiming": [0.99, 0, 1.04, 0.05, 1.09, 0.1, 1.14, 0.15, 1.19, 0.2, 1.2375, 0.2475, 1.2875, 0.2975, 1.3375, 0.3475, 1.3875, 0.3975, 1.435, 0.4475, 1.485, 0.495, 1.535, 0.545, 1.585, 0.595, 1.635, 0.645, 1.6825, 0.695, 1.7325, 0.7425, 1.7825, 0.7925, 1.8325, 0.8425, 1.8825, 0.8925, 1.93, 0.9425],
  "SoftwareVersions": "syngo_MR_E11",
  "StationName": "AWP66112",
  "TaskName": "movie",
  "TotalReadoutTime": 0.0193552,
  "dcmmeta_affine": [
    [-2.9928410053253174, 0.08255212754011154, 0.18996721506118774, 116.26731872558594],
    [0.12459460645914078, 2.9154932498931885, 0.6959710121154785, -116.41588592529297],
    [0.16546474397182465, -0.7021998763084412, 2.9119644165039062, -25.02886199951172],
    [0.0, 0.0, 0.0, 1.0]
],
  "dcmmeta_reorient_transform": [
    [0.0, -1.0, 0.0, 79.0],
    [1.0, 0.0, 0.0, 0.0],
    [0.0, 0.0, 1.0, 0.0],
    [0.0, 0.0, 0.0, 1.0]
],
  "dcmmeta_shape": [80, 80, 40, 1369],
  "dcmmeta_slice_dim": 2,
  "dcmmeta_version": 0.6,
  "global": {
    "const": {
      "AccessionNumber": "A001220",
      "AcquisitionMatrix": [80, 0, 0, 80],
      "AngioFlag": "N",
      "BitsAllocated": 16,
      "BitsStored": 12,
      "BodyPartExamined": "BRAIN",
      "Columns": 560,
      "EchoNumbers": 1,
      "EchoTime": 25.0,
      "EchoTrainLength": 39,
      "FlipAngle": 75.0,
      "HighBit": 11,
      "ImageOrientationPatient": [0.99761368614196, -0.0415315360267, 0.05515491580563, 0.02751737700179, 0.97183106073862, 0.23406662159861],
      "ImagePositionPatient": [-860.88329966216, -783.72373172423, -288.74215770374],
      "ImageType": [
        "ORIGINAL",
        "PRIMARY",
        "FMRI",
        "NONE",
        "ND",
        "NORM",
        "MOSAIC"
],
      "ImagedNucleus": "1H",
      "ImagingFrequency": 123.252303,
      "InPlanePhaseEncodingDirection": "COL",
      "MRAcquisitionType": "2D",
      "MagneticFieldStrength": 3.0,
      "Manufacturer": "SIEMENS",
      "ManufacturerModelName": "Prisma",
      "Modality": "MR",
      "NumberOfAverages": 1.0,
      "NumberOfPhaseEncodingSteps": 79,
      "PercentPhaseFieldOfView": 100.0,
      "PercentSampling": 100.0,
      "PerformedProcedureStepStartTime": "180445.266000",
      "PhotometricInterpretation": "MONOCHROME2",
      "PixelBandwidth": 2840.0,
      "PixelRepresentation": 0,
      "PixelSpacing": [3.0, 3.0],
      "PositionReferenceIndicator": "",
      "ProtocolName": "func_run-01_task-movie",
      "RepetitionTime": 2000.0,
      "Rows": 560,
      "SAR": 0.09693398615737,
      "SamplesPerPixel": 1,
      "ScanOptions": "FS",
      "ScanningSequence": "EP",
      "SequenceName": "*epfid2d1_80",
      "SequenceVariant": "SK",
      "SeriesDescription": "func_run-01_task-movie",
      "SeriesNumber": 6,
      "SeriesTime": "182544.711000",
      "SliceLocation": -43.939420475218,
      "SliceThickness": 3.0,
      "SmallestImagePixelValue": 0,
      "SoftwareVersions": "syngo MR E11",
      "SpacingBetweenSlices": 3.0000000077798,
      "SpecificCharacterSet": "ISO_IR 100",
      "StudyID": "1",
      "StudyTime": "180445.201000",
      "TransmitCoilName": "Body",
      "VariableFlipAngleFlag": "N",
      "WindowCenterWidthExplanation": "Algo1",
      "dBdt": 0.0},
    "slices": {}
  },
  "time": {
    "samples": {
      "AcquisitionNumber": [1, 2, 3, 4, 5, 6, 7, 8, 9, 10, 11, 12, 13, 14, 15, 16, 17, 18, 19, 20, 21, 22, 23, 24, 25, 26, 27, 28, 29, 30, 31, 32, 33, 34, 35, 36, 37, 38, 39, 40, 41, 42, 43, 44, 45, 46, 47, 48, 49, 50, 51, 52, 53, 54, 55, 56, 57, 58, 59, 60, 61, 62, 63, 64, 65, 66, 67, 68, 69, 70, 71, 72, 73, 74, 75, 76, 77, 78, 79, 80, 81, 82, 83, 84, 85, 86, 87, 88, 89, 90, 91, 92, 93, 94, 95, 96, 97, 98, 99, 100, 101, 102, 103, 104, 105, 106, 107, 108, 109, 110, 111, 112, 113, 114, 115, 116, 117, 118, 119, 120, 121, 122, 123, 124, 125, 126, 127, 128, 129, 130, 131, 132, 133, 134, 135, 136, 137, 138, 139, 140, 141, 142, 143, 144, 145, 146, 147, 148, 149, 150, 151, 152, 153, 154, 155, 156, 157, 158, 159, 160, 161, 162, 163, 164, 165, 166, 167, 168, 169, 170, 171, 172, 173, 174, 175, 176, 177, 178, 179, 180, 181, 182, 183, 184, 185, 186, 187, 188, 189, 190, 191, 192, 193, 194, 195, 196, 197, 198, 199, 200, 201, 202, 203, 204, 205, 206, 207, 208, 209, 210, 211, 212, 213, 214, 215, 216, 217, 218, 219, 220, 221, 222, 223, 224, 225, 226, 227, 228, 229, 230, 231, 232, 233, 234, 235, 236, 237, 238, 239, 240, 241, 242, 243, 244, 245, 246, 247, 248, 249, 250, 251, 252, 253, 254, 255, 256, 257, 258, 259, 260, 261, 262, 263, 264, 265, 266, 267, 268, 269, 270, 271, 272, 273, 274, 275, 276, 277, 278, 279, 280, 281, 282, 283, 284, 285, 286, 287, 288, 289, 290, 291, 292, 293, 294, 295, 296, 297, 298, 299, 300, 301, 302, 303, 304, 305, 306, 307, 308, 309, 310, 311, 312, 313, 314, 315, 316, 317, 318, 319, 320, 321, 322, 323, 324, 325, 326, 327, 328, 329, 330, 331, 332, 333, 334, 335, 336, 337, 338, 339, 340, 341, 342, 343, 344, 345, 346, 347, 348, 349, 350, 351, 352, 353, 354, 355, 356, 357, 358, 359, 360, 361, 362, 363, 364, 365, 366, 367, 368, 369, 370, 371, 372, 373, 374, 375, 376, 377, 378, 379, 380, 381, 382, 383, 384, 385, 386, 387, 388, 389, 390, 391, 392, 393, 394, 395, 396, 397, 398, 399, 400, 401, 402, 403, 404, 405, 406, 407, 408, 409, 410, 411, 412, 413, 414, 415, 416, 417, 418, 419, 420, 421, 422, 423, 424, 425, 426, 427, 428, 429, 430, 431, 432, 433, 434, 435, 436, 437, 438, 439, 440, 441, 442, 443, 444, 445, 446, 447, 448, 449, 450, 451, 452, 453, 454, 455, 456, 457, 458, 459, 460, 461, 462, 463, 464, 465, 466, 467, 468, 469, 470, 471, 472, 473, 474, 475, 476, 477, 478, 479, 480, 481, 482, 483, 484, 485, 486, 487, 488, 489, 490, 491, 492, 493, 494, 495, 496, 497, 498, 499, 500, 501, 502, 503, 504, 505, 506, 507, 508, 509, 510, 511, 512, 513, 514, 515, 516, 517, 518, 519, 520, 521, 522, 523, 524, 525, 526, 527, 528, 529, 530, 531, 532, 533, 534, 535, 536, 537, 538, 539, 540, 541, 542, 543, 544, 545, 546, 547, 548, 549, 550, 551, 552, 553, 554, 555, 556, 557, 558, 559, 560, 561, 562, 563, 564, 565, 566, 567, 568, 569, 570, 571, 572, 573, 574, 575, 576, 577, 578, 579, 580, 581, 582, 583, 584, 585, 586, 587, 588, 589, 590, 591, 592, 593, 594, 595, 596, 597, 598, 599, 600, 601, 602, 603, 604, 605, 606, 607, 608, 609, 610, 611, 612, 613, 614, 615, 616, 617, 618, 619, 620, 621, 622, 623, 624, 625, 626, 627, 628, 629, 630, 631, 632, 633, 634, 635, 636, 637, 638, 639, 640, 641, 642, 643, 644, 645, 646, 647, 648, 649, 650, 651, 652, 653, 654, 655, 656, 657, 658, 659, 660, 661, 662, 663, 664, 665, 666, 667, 668, 669, 670, 671, 672, 673, 674, 675, 676, 677, 678, 679, 680, 681, 682, 683, 684, 685, 686, 687, 688, 689, 690, 691, 692, 693, 694, 695, 696, 697, 698, 699, 700, 701, 702, 703, 704, 705, 706, 707, 708, 709, 710, 711, 712, 713, 714, 715, 716, 717, 718, 719, 720, 721, 722, 723, 724, 725, 726, 727, 728, 729, 730, 731, 732, 733, 734, 735, 736, 737, 738, 739, 740, 741, 742, 743, 744, 745, 746, 747, 748, 749, 750, 751, 752, 753, 754, 755, 756, 757, 758, 759, 760, 761, 762, 763, 764, 765, 766, 767, 768, 769, 770, 771, 772, 773, 774, 775, 776, 777, 778, 779, 780, 781, 782, 783, 784, 785, 786, 787, 788, 789, 790, 791, 792, 793, 794, 795, 796, 797, 798, 799, 800, 801, 802, 803, 804, 805, 806, 807, 808, 809, 810, 811, 812, 813, 814, 815, 816, 817, 818, 819, 820, 821, 822, 823, 824, 825, 826, 827, 828, 829, 830, 831, 832, 833, 834, 835, 836, 837, 838, 839, 840, 841, 842, 843, 844, 845, 846, 847, 848, 849, 850, 851, 852, 853, 854, 855, 856, 857, 858, 859, 860, 861, 862, 863, 864, 865, 866, 867, 868, 869, 870, 871, 872, 873, 874, 875, 876, 877, 878, 879, 880, 881, 882, 883, 884, 885, 886, 887, 888, 889, 890, 891, 892, 893, 894, 895, 896, 897, 898, 899, 900, 901, 902, 903, 904, 905, 906, 907, 908, 909, 910, 911, 912, 913, 914, 915, 916, 917, 918, 919, 920, 921, 922, 923, 924, 925, 926, 927, 928, 929, 930, 931, 932, 933, 934, 935, 936, 937, 938, 939, 940, 941, 942, 943, 944, 945, 946, 947, 948, 949, 950, 951, 952, 953, 954, 955, 956, 957, 958, 959, 960, 961, 962, 963, 964, 965, 966, 967, 968, 969, 970, 971, 972, 973, 974, 975, 976, 977, 978, 979, 980, 981, 982, 983, 984, 985, 986, 987, 988, 989, 990, 991, 992, 993, 994, 995, 996, 997, 998, 999, 1000, 1001, 1002, 1003, 1004, 1005, 1006, 1007, 1008, 1009, 1010, 1011, 1012, 1013, 1014, 1015, 1016, 1017, 1018, 1019, 1020, 1021, 1022, 1023, 1024, 1025, 1026, 1027, 1028, 1029, 1030, 1031, 1032, 1033, 1034, 1035, 1036, 1037, 1038, 1039, 1040, 1041, 1042, 1043, 1044, 1045, 1046, 1047, 1048, 1049, 1050, 1051, 1052, 1053, 1054, 1055, 1056, 1057, 1058, 1059, 1060, 1061, 1062, 1063, 1064, 1065, 1066, 1067, 1068, 1069, 1070, 1071, 1072, 1073, 1074, 1075, 1076, 1077, 1078, 1079, 1080, 1081, 1082, 1083, 1084, 1085, 1086, 1087, 1088, 1089, 1090, 1091, 1092, 1093, 1094, 1095, 1096, 1097, 1098, 1099, 1100, 1101, 1102, 1103, 1104, 1105, 1106, 1107, 1108, 1109, 1110, 1111, 1112, 1113, 1114, 1115, 1116, 1117, 1118, 1119, 1120, 1121, 1122, 1123, 1124, 1125, 1126, 1127, 1128, 1129, 1130, 1131, 1132, 1133, 1134, 1135, 1136, 1137, 1138, 1139, 1140, 1141, 1142, 1143, 1144, 1145, 1146, 1147, 1148, 1149, 1150, 1151, 1152, 1153, 1154, 1155, 1156, 1157, 1158, 1159, 1160, 1161, 1162, 1163, 1164, 1165, 1166, 1167, 1168, 1169, 1170, 1171, 1172, 1173, 1174, 1175, 1176, 1177, 1178, 1179, 1180, 1181, 1182, 1183, 1184, 1185, 1186, 1187, 1188, 1189, 1190, 1191, 1192, 1193, 1194, 1195, 1196, 1197, 1198, 1199, 1200, 1201, 1202, 1203, 1204, 1205, 1206, 1207, 1208, 1209, 1210, 1211, 1212, 1213, 1214, 1215, 1216, 1217, 1218, 1219, 1220, 1221, 1222, 1223, 1224, 1225, 1226, 1227, 1228, 1229, 1230, 1231, 1232, 1233, 1234, 1235, 1236, 1237, 1238, 1239, 1240, 1241, 1242, 1243, 1244, 1245, 1246, 1247, 1248, 1249, 1250, 1251, 1252, 1253, 1254, 1255, 1256, 1257, 1258, 1259, 1260, 1261, 1262, 1263, 1264, 1265, 1266, 1267, 1268, 1269, 1270, 1271, 1272, 1273, 1274, 1275, 1276, 1277, 1278, 1279, 1280, 1281, 1282, 1283, 1284, 1285, 1286, 1287, 1288, 1289, 1290, 1291, 1292, 1293, 1294, 1295, 1296, 1297, 1298, 1299, 1300, 1301, 1302, 1303, 1304, 1305, 1306, 1307, 1308, 1309, 1310, 1311, 1312, 1313, 1314, 1315, 1316, 1317, 1318, 1319, 1320, 1321, 1322, 1323, 1324, 1325, 1326, 1327, 1328, 1329, 1330, 1331, 1332, 1333, 1334, 1335, 1336, 1337, 1338, 1339, 1340, 1341, 1342, 1343, 1344, 1345, 1346, 1347, 1348, 1349, 1350, 1351, 1352, 1353, 1354, 1355, 1356, 1357, 1358, 1359, 1360, 1361, 1362, 1363, 1364, 1365, 1366, 1367, 1368, 1369],
      "AcquisitionTime": ["182543.672500", "182545.672500", "182547.672500", "182549.672500", "182551.672500", "182553.672500", "182555.672500", "182557.672500", "182559.672500", "182601.672500", "182603.672500", "182605.672500", "182607.672500", "182609.672500", "182611.672500", "182613.672500", "182615.672500", "182617.672500", "182619.672500", "182621.672500", "182623.672500", "182625.672500", "182627.672500", "182629.672500", "182631.672500", "182633.672500", "182635.672500", "182637.672500", "182639.672500", "182641.672500", "182643.672500", "182645.672500", "182647.672500", "182649.672500", "182651.672500", "182653.672500", "182655.672500", "182657.672500", "182659.672500", "182701.672500", "182703.672500", "182705.672500", "182707.672500", "182709.672500", "182711.672500", "182713.672500", "182715.672500", "182717.672500", "182719.672500", "182721.672500", "182723.672500", "182725.672500", "182727.672500", "182729.672500", "182731.672500", "182733.672500", "182735.672500", "182737.672500", "182739.672500", "182741.672500", "182743.672500", "182745.672500", "182747.672500", "182749.672500", "182751.672500", "182753.672500", "182755.672500", "182757.672500", "182759.672500", "182801.672500", "182803.672500", "182805.672500", "182807.672500", "182809.672500", "182811.672500", "182813.672500", "182815.672500", "182817.672500", "182819.672500", "182821.672500", "182823.672500", "182825.672500", "182827.672500", "182829.672500", "182831.672500", "182833.672500", "182835.672500", "182837.672500", "182839.672500", "182841.672500", "182843.672500", "182845.672500", "182847.672500", "182849.672500", "182851.672500", "182853.672500", "182855.672500", "182857.672500", "182859.672500", "182901.672500", "182903.672500", "182905.672500", "182907.672500", "182909.672500", "182911.672500", "182913.672500", "182915.672500", "182917.672500", "182919.672500", "182921.672500", "182923.672500", "182925.672500", "182927.672500", "182929.672500", "182931.672500", "182933.672500", "182935.672500", "182937.672500", "182939.672500", "182941.672500", "182943.672500", "182945.672500", "182947.672500", "182949.672500", "182951.672500", "182953.672500", "182955.672500", "182957.672500", "182959.672500", "183001.672500", "183003.672500", "183005.672500", "183007.672500", "183009.672500", "183011.672500", "183013.672500", "183015.672500", "183017.672500", "183019.672500", "183021.672500", "183023.672500", "183025.672500", "183027.672500", "183029.672500", "183031.672500", "183033.672500", "183035.672500", "183037.672500", "183039.672500", "183041.672500", "183043.672500", "183045.672500", "183047.672500", "183049.672500", "183051.672500", "183053.672500", "183055.672500", "183057.672500", "183059.672500", "183101.672500", "183103.672500", "183105.672500", "183107.672500", "183109.672500", "183111.672500", "183113.672500", "183115.672500", "183117.672500", "183119.672500", "183121.672500", "183123.672500", "183125.672500", "183127.672500", "183129.672500", "183131.672500", "183133.672500", "183135.672500", "183137.672500", "183139.672500", "183141.672500", "183143.672500", "183145.672500", "183147.672500", "183149.672500", "183151.672500", "183153.672500", "183155.672500", "183157.672500", "183159.672500", "183201.672500", "183203.672500", "183205.672500", "183207.672500", "183209.672500", "183211.672500", "183213.672500", "183215.672500", "183217.672500", "183219.672500", "183221.672500", "183223.672500", "183225.672500", "183227.672500", "183229.672500", "183231.672500", "183233.672500", "183235.672500", "183237.672500", "183239.672500", "183241.672500", "183243.672500", "183245.672500", "183247.672500", "183249.672500", "183251.672500", "183253.672500", "183255.672500", "183257.672500", "183259.672500", "183301.672500", "183303.672500", "183305.672500", "183307.672500", "183309.672500", "183311.672500", "183313.672500", "183315.672500", "183317.672500", "183319.672500", "183321.672500", "183323.672500", "183325.672500", "183327.672500", "183329.672500", "183331.672500", "183333.672500", "183335.672500", "183337.672500", "183339.672500", "183341.672500", "183343.672500", "183345.672500", "183347.672500", "183349.672500", "183351.672500", "183353.672500", "183355.672500", "183357.672500", "183359.672500", "183401.672500", "183403.672500", "183405.672500", "183407.672500", "183409.672500", "183411.672500", "183413.672500", "183415.672500", "183417.672500", "183419.672500", "183421.672500", "183423.672500", "183425.672500", "183427.672500", "183429.672500", "183431.672500", "183433.672500", "183435.672500", "183437.672500", "183439.672500", "183441.672500", "183443.672500", "183445.672500", "183447.672500", "183449.672500", "183451.672500", "183453.672500", "183455.672500", "183457.672500", "183459.672500", "183501.672500", "183503.672500", "183505.672500", "183507.672500", "183509.672500", "183511.672500", "183513.672500", "183515.672500", "183517.672500", "183519.672500", "183521.672500", "183523.672500", "183525.672500", "183527.672500", "183529.672500", "183531.672500", "183533.672500", "183535.672500", "183537.672500", "183539.672500", "183541.672500", "183543.672500", "183545.672500", "183547.672500", "183549.672500", "183551.672500", "183553.672500", "183555.672500", "183557.672500", "183559.672500", "183601.672500", "183603.672500", "183605.672500", "183607.672500", "183609.672500", "183611.672500", "183613.672500", "183615.672500", "183617.672500", "183619.672500", "183621.672500", "183623.672500", "183625.672500", "183627.672500", "183629.672500", "183631.672500", "183633.672500", "183635.672500", "183637.672500", "183639.672500", "183641.672500", "183643.672500", "183645.672500", "183647.672500", "183649.672500", "183651.672500", "183653.672500", "183655.672500", "183657.672500", "183659.672500", "183701.672500", "183703.672500", "183705.672500", "183707.672500", "183709.672500", "183711.672500", "183713.672500", "183715.672500", "183717.672500", "183719.672500", "183721.672500", "183723.672500", "183725.672500", "183727.672500", "183729.672500", "183731.672500", "183733.672500", "183735.672500", "183737.672500", "183739.672500", "183741.672500", "183743.672500", "183745.672500", "183747.672500", "183749.672500", "183751.672500", "183753.672500", "183755.672500", "183757.672500", "183759.672500", "183801.672500", "183803.672500", "183805.672500", "183807.672500", "183809.672500", "183811.672500", "183813.672500", "183815.672500", "183817.672500", "183819.672500", "183821.672500", "183823.672500", "183825.672500", "183827.672500", "183829.672500", "183831.672500", "183833.672500", "183835.672500", "183837.672500", "183839.672500", "183841.672500", "183843.672500", "183845.672500", "183847.672500", "183849.672500", "183851.672500", "183853.672500", "183855.672500", "183857.672500", "183859.672500", "183901.672500", "183903.672500", "183905.672500", "183907.672500", "183909.672500", "183911.672500", "183913.672500", "183915.672500", "183917.672500", "183919.672500", "183921.672500", "183923.672500", "183925.672500", "183927.672500", "183929.672500", "183931.672500", "183933.672500", "183935.672500", "183937.672500", "183939.672500", "183941.672500", "183943.672500", "183945.672500", "183947.672500", "183949.672500", "183951.672500", "183953.672500", "183955.672500", "183957.672500", "183959.672500", "184001.672500", "184003.672500", "184005.672500", "184007.672500", "184009.672500", "184011.672500", "184013.672500", "184015.672500", "184017.672500", "184019.672500", "184021.672500", "184023.672500", "184025.672500", "184027.672500", "184029.672500", "184031.672500", "184033.672500", "184035.672500", "184037.672500", "184039.672500", "184041.672500", "184043.672500", "184045.672500", "184047.672500", "184049.672500", "184051.672500", "184053.672500", "184055.672500", "184057.672500", "184059.672500", "184101.672500", "184103.672500", "184105.672500", "184107.672500", "184109.672500", "184111.672500", "184113.672500", "184115.672500", "184117.672500", "184119.672500", "184121.672500", "184123.672500", "184125.672500", "184127.672500", "184129.672500", "184131.672500", "184133.672500", "184135.672500", "184137.672500", "184139.672500", "184141.672500", "184143.672500", "184145.672500", "184147.672500", "184149.672500", "184151.672500", "184153.672500", "184155.672500", "184157.672500", "184159.672500", "184201.672500", "184203.672500", "184205.672500", "184207.672500", "184209.672500", "184211.672500", "184213.672500", "184215.672500", "184217.672500", "184219.672500", "184221.672500", "184223.672500", "184225.672500", "184227.672500", "184229.672500", "184231.672500", "184233.672500", "184235.672500", "184237.672500", "184239.672500", "184241.672500", "184243.672500", "184245.672500", "184247.672500", "184249.672500", "184251.672500", "184253.672500", "184255.672500", "184257.672500", "184259.672500", "184301.672500", "184303.672500", "184305.672500", "184307.672500", "184309.672500", "184311.672500", "184313.672500", "184315.672500", "184317.672500", "184319.672500", "184321.672500", "184323.672500", "184325.672500", "184327.672500", "184329.672500", "184331.672500", "184333.672500", "184335.672500", "184337.672500", "184339.672500", "184341.672500", "184343.672500", "184345.672500", "184347.672500", "184349.672500", "184351.672500", "184353.672500", "184355.672500", "184357.672500", "184359.672500", "184401.672500", "184403.672500", "184405.672500", "184407.672500", "184409.672500", "184411.672500", "184413.672500", "184415.672500", "184417.672500", "184419.672500", "184421.672500", "184423.672500", "184425.672500", "184427.672500", "184429.672500", "184431.672500", "184433.672500", "184435.672500", "184437.672500", "184439.672500", "184441.672500", "184443.672500", "184445.672500", "184447.672500", "184449.672500", "184451.672500", "184453.672500", "184455.672500", "184457.672500", "184459.672500", "184501.672500", "184503.672500", "184505.672500", "184507.672500", "184509.672500", "184511.672500", "184513.672500", "184515.672500", "184517.672500", "184519.672500", "184521.672500", "184523.672500", "184525.672500", "184527.672500", "184529.672500", "184531.672500", "184533.672500", "184535.672500", "184537.672500", "184539.672500", "184541.672500", "184543.672500", "184545.672500", "184547.672500", "184549.672500", "184551.672500", "184553.672500", "184555.672500", "184557.672500", "184559.672500", "184601.672500", "184603.672500", "184605.672500", "184607.672500", "184609.672500", "184611.672500", "184613.672500", "184615.672500", "184617.672500", "184619.672500", "184621.672500", "184623.672500", "184625.672500", "184627.672500", "184629.672500", "184631.672500", "184633.672500", "184635.672500", "184637.672500", "184639.672500", "184641.672500", "184643.672500", "184645.672500", "184647.672500", "184649.672500", "184651.672500", "184653.672500", "184655.672500", "184657.672500", "184659.672500", "184701.672500", "184703.672500", "184705.672500", "184707.672500", "184709.672500", "184711.672500", "184713.672500", "184715.672500", "184717.672500", "184719.672500", "184721.672500", "184723.672500", "184725.672500", "184727.672500", "184729.672500", "184731.672500", "184733.672500", "184735.672500", "184737.672500", "184739.672500", "184741.672500", "184743.672500", "184745.672500", "184747.672500", "184749.672500", "184751.672500", "184753.672500", "184755.672500", "184757.672500", "184759.672500", "184801.672500", "184803.672500", "184805.672500", "184807.672500", "184809.672500", "184811.672500", "184813.672500", "184815.672500", "184817.672500", "184819.672500", "184821.672500", "184823.672500", "184825.672500", "184827.672500", "184829.672500", "184831.672500", "184833.672500", "184835.672500", "184837.672500", "184839.672500", "184841.672500", "184843.672500", "184845.672500", "184847.672500", "184849.672500", "184851.672500", "184853.672500", "184855.672500", "184857.672500", "184859.672500", "184901.672500", "184903.672500", "184905.672500", "184907.672500", "184909.672500", "184911.672500", "184913.672500", "184915.672500", "184917.672500", "184919.672500", "184921.672500", "184923.672500", "184925.672500", "184927.672500", "184929.672500", "184931.672500", "184933.672500", "184935.672500", "184937.672500", "184939.672500", "184941.672500", "184943.672500", "184945.672500", "184947.672500", "184949.672500", "184951.672500", "184953.672500", "184955.672500", "184957.672500", "184959.672500", "185001.672500", "185003.672500", "185005.672500", "185007.672500", "185009.672500", "185011.672500", "185013.672500", "185015.672500", "185017.672500", "185019.672500", "185021.672500", "185023.672500", "185025.672500", "185027.672500", "185029.672500", "185031.672500", "185033.672500", "185035.672500", "185037.672500", "185039.672500", "185041.672500", "185043.672500", "185045.672500", "185047.672500", "185049.672500", "185051.672500", "185053.672500", "185055.672500", "185057.672500", "185059.672500", "185101.672500", "185103.672500", "185105.672500", "185107.672500", "185109.672500", "185111.672500", "185113.672500", "185115.672500", "185117.672500", "185119.672500", "185121.672500", "185123.672500", "185125.672500", "185127.672500", "185129.672500", "185131.672500", "185133.672500", "185135.672500", "185137.672500", "185139.672500", "185141.672500", "185143.672500", "185145.672500", "185147.672500", "185149.672500", "185151.672500", "185153.672500", "185155.672500", "185157.672500", "185159.672500", "185201.672500", "185203.672500", "185205.672500", "185207.672500", "185209.672500", "185211.672500", "185213.672500", "185215.672500", "185217.672500", "185219.672500", "185221.672500", "185223.672500", "185225.672500", "185227.672500", "185229.672500", "185231.672500", "185233.672500", "185235.672500", "185237.672500", "185239.672500", "185241.672500", "185243.672500", "185245.672500", "185247.672500", "185249.672500", "185251.672500", "185253.672500", "185255.672500", "185257.672500", "185259.672500", "185301.672500", "185303.672500", "185305.672500", "185307.672500", "185309.672500", "185311.672500", "185313.672500", "185315.672500", "185317.672500", "185319.672500", "185321.672500", "185323.672500", "185325.672500", "185327.672500", "185329.672500", "185331.672500", "185333.672500", "185335.672500", "185337.672500", "185339.672500", "185341.672500", "185343.672500", "185345.672500", "185347.672500", "185349.672500", "185351.672500", "185353.672500", "185355.672500", "185357.672500", "185359.672500", "185401.672500", "185403.672500", "185405.672500", "185407.672500", "185409.672500", "185411.672500", "185413.672500", "185415.672500", "185417.672500", "185419.672500", "185421.672500", "185423.672500", "185425.672500", "185427.672500", "185429.672500", "185431.672500", "185433.672500", "185435.672500", "185437.672500", "185439.672500", "185441.672500", "185443.672500", "185445.672500", "185447.672500", "185449.672500", "185451.672500", "185453.672500", "185455.672500", "185457.672500", "185459.672500", "185501.672500", "185503.672500", "185505.672500", "185507.672500", "185509.672500", "185511.672500", "185513.672500", "185515.672500", "185517.672500", "185519.672500", "185521.672500", "185523.672500", "185525.672500", "185527.672500", "185529.672500", "185531.672500", "185533.672500", "185535.672500", "185537.672500", "185539.672500", "185541.672500", "185543.672500", "185545.672500", "185547.672500", "185549.672500", "185551.672500", "185553.672500", "185555.672500", "185557.672500", "185559.672500", "185601.672500", "185603.672500", "185605.672500", "185607.672500", "185609.672500", "185611.672500", "185613.672500", "185615.672500", "185617.672500", "185619.672500", "185621.672500", "185623.672500", "185625.672500", "185627.672500", "185629.672500", "185631.672500", "185633.672500", "185635.672500", "185637.672500", "185639.672500", "185641.672500", "185643.672500", "185645.672500", "185647.672500", "185649.672500", "185651.672500", "185653.672500", "185655.672500", "185657.672500", "185659.672500", "185701.672500", "185703.672500", "185705.672500", "185707.672500", "185709.672500", "185711.672500", "185713.672500", "185715.672500", "185717.672500", "185719.672500", "185721.672500", "185723.672500", "185725.672500", "185727.672500", "185729.672500", "185731.672500", "185733.672500", "185735.672500", "185737.672500", "185739.672500", "185741.672500", "185743.672500", "185745.672500", "185747.672500", "185749.672500", "185751.672500", "185753.672500", "185755.672500", "185757.672500", "185759.672500", "185801.672500", "185803.672500", "185805.672500", "185807.672500", "185809.672500", "185811.672500", "185813.672500", "185815.672500", "185817.672500", "185819.672500", "185821.672500", "185823.672500", "185825.672500", "185827.672500", "185829.672500", "185831.672500", "185833.672500", "185835.672500", "185837.672500", "185839.672500", "185841.672500", "185843.672500", "185845.672500", "185847.672500", "185849.672500", "185851.672500", "185853.672500", "185855.672500", "185857.672500", "185859.672500", "185901.672500", "185903.672500", "185905.672500", "185907.672500", "185909.672500", "185911.672500", "185913.672500", "185915.672500", "185917.672500", "185919.672500", "185921.672500", "185923.672500", "185925.672500", "185927.672500", "185929.672500", "185931.672500", "185933.672500", "185935.672500", "185937.672500", "185939.672500", "185941.672500", "185943.672500", "185945.672500", "185947.672500", "185949.672500", "185951.672500", "185953.672500", "185955.672500", "185957.672500", "185959.672500", "190001.672500", "190003.672500", "190005.672500", "190007.672500", "190009.672500", "190011.672500", "190013.672500", "190015.672500", "190017.672500", "190019.672500", "190021.672500", "190023.672500", "190025.672500", "190027.672500", "190029.672500", "190031.672500", "190033.672500", "190035.672500", "190037.672500", "190039.672500", "190041.672500", "190043.672500", "190045.672500", "190047.672500", "190049.672500", "190051.672500", "190053.672500", "190055.672500", "190057.672500", "190059.672500", "190101.672500", "190103.672500", "190105.672500", "190107.672500",