{
  "AcquisitionMatrixPE": 80,
  "AcquisitionNumber": 1,
  "AcquisitionTime": "21:20:19.092500",
  "BandwidthPerPixelPhaseEncode": 51.02,
  "BaseResolution": 80,
  "BodyPartExamined": "BRAIN",
  "ConsistencyInfo": "N4_VE11C_LATEST_20160120",
  "ConversionSoftware": "dcm2niix",
  "ConversionSoftwareVersion": "v1.0.20170923 (OpenJPEG build) GCC6.3.0",
  "DerivedVendorReportedEchoSpacing": 0.000490004,
  "DeviceSerialNumber": "66112",
  "DwellTime": 2.2e-06,
  "EchoTime": 0.025,
  "EchoTrainLength": 39,
  "EffectiveEchoSpacing": 0.000245002,
  "FlipAngle": 75,
  "ImageType": [
    "ORIGINAL",
    "PRIMARY",
    "FMRI",
    "NONE",
    "ND",
    "NORM",
    "MOSAIC"
],
  "InstitutionAddress": "Maynard_3_Hanover_NH_US_03755",
  "InstitutionName": "Dartmouth_College_-_PBS",
  "MagneticFieldStrength": 3,
  "Manufacturer": "Siemens",
  "ManufacturersModelName": "Prisma",
  "Modality": "MR",
  "ParallelReductionFactorInPlane": 2,
  "PartialFourier": 1,
  "PercentPhaseFOV": 100,
  "PhaseEncodingDirection": "j-",
  "PhaseEncodingSteps": 79,
  "PhaseResolution": 1,
  "ProcedureStepDescription": "Chang_Chang_1039_fnlpilot",
  "ProtocolName": "func_run-01_task-movie",
  "PulseSequenceDetails": "%SiemensSeq%_ep2d_bold",
  "ReceiveCoilActiveElements": "HEA;HEP",
  "ReceiveCoilName": "Head_32",
  "ReconMatrixPE": 80,
  "RepetitionTime": 2,
  "ScanOptions": "FS",
  "ScanningSequence": "EP",
  "SequenceName": "_epfid2d1_80",
  "SequenceVariant": "SK",
  "SeriesDescription": "func_run-01_task-movie",
  "SliceTiming": [0.9875, 0, 1.0375, 0.0475, 1.0875, 0.0975, 1.1375, 0.1475, 1.1875, 0.1975, 1.235, 0.2475, 1.285, 0.295, 1.335, 0.345, 1.385, 0.395, 1.435, 0.445, 1.4825, 0.495, 1.5325, 0.5425, 1.5825, 0.5925, 1.6325, 0.6425, 1.6825, 0.6925, 1.73, 0.7425, 1.78, 0.79, 1.83, 0.84, 1.88, 0.89, 1.93, 0.94],
  "SoftwareVersions": "syngo_MR_E11",
  "StationName": "AWP66112",
  "TaskName": "movie",
  "TotalReadoutTime": 0.0193552,
  "dcmmeta_affine": [
    [-2.995441436767578, -0.03346072882413864, -0.1618993878364563, 125.40772247314453],
    [-0.028038347139954567, 2.9981720447540283, -0.10088855773210526, -105.53730010986328],
    [-0.16292601823806763, 0.09922213107347488, 2.9939286708831787, -45.09857940673828],
    [0.0, 0.0, 0.0, 1.0]
],
  "dcmmeta_reorient_transform": [
    [0.0, -1.0, 0.0, 79.0],
    [1.0, 0.0, 0.0, 0.0],
    [0.0, 0.0, 1.0, 0.0],
    [0.0, 0.0, 0.0, 1.0]
],
  "dcmmeta_shape": [80, 80, 40, 1369],
  "dcmmeta_slice_dim": 2,
  "dcmmeta_version": 0.6,
  "global": {
    "const": {
      "AccessionNumber": "A001164",
      "AcquisitionMatrix": [80, 0, 0, 80],
      "AngioFlag": "N",
      "BitsAllocated": 16,
      "BitsStored": 12,
      "BodyPartExamined": "BRAIN",
      "Columns": 560,
      "EchoNumbers": 1,
      "EchoTime": 25.0,
      "EchoTrainLength": 39,
      "FlipAngle": 75.0,
      "HighBit": 11,
      "ImageOrientationPatient": [0.99848045471142, 0.00934611597023, -0.0543086703533, -0.0111535767106, 0.99939066707621, -0.0330740425037],
      "ImagePositionPatient": [-833.6396798881, -857.60877519279, 25.655522378979],
      "ImageType": [
        "ORIGINAL",
        "PRIMARY",
        "FMRI",
        "NONE",
        "ND",
        "NORM",
        "MOSAIC"
],
      "ImagedNucleus": "1H",
      "ImagingFrequency": 123.252271,
      "InPlanePhaseEncodingDirection": "COL",
      "MRAcquisitionType": "2D",
      "MagneticFieldStrength": 3.0,
      "Manufacturer": "SIEMENS",
      "ManufacturerModelName": "Prisma",
      "Modality": "MR",
      "NumberOfAverages": 1.0,
      "NumberOfPhaseEncodingSteps": 79,
      "PercentPhaseFieldOfView": 100.0,
      "PercentSampling": 100.0,
      "PerformedProcedureStepStartTime": "210651.375000",
      "PhotometricInterpretation": "MONOCHROME2",
      "PixelBandwidth": 2840.0,
      "PixelRepresentation": 0,
      "PixelSpacing": [3.0, 3.0],
      "PositionReferenceIndicator": "",
      "ProtocolName": "func_run-01_task-movie",
      "RepetitionTime": 2000.0,
      "Rows": 560,
      "SAR": 0.11148519361093,
      "SamplesPerPixel": 1,
      "ScanOptions": "FS",
      "ScanningSequence": "EP",
      "SequenceName": "*epfid2d1_80",
      "SequenceVariant": "SK",
      "SeriesDescription": "func_run-01_task-movie",
      "SeriesNumber": 6,
      "SeriesTime": "212021.004000",
      "SliceLocation": -48.225955349209,
      "SliceThickness": 3.0,
      "SmallestImagePixelValue": 0,
      "SoftwareVersions": "syngo MR E11",
      "SpacingBetweenSlices": 2.9999998921292,
      "SpecificCharacterSet": "ISO_IR 100",
      "StudyID": "1",
      "StudyTime": "210651.238000",
      "TransmitCoilName": "Body",
      "VariableFlipAngleFlag": "N",
      "WindowCenterWidthExplanation": "Algo1",
      "dBdt": 0.0},
    "slices": {}
  },
  "time": {
    "samples": {
      "AcquisitionNumber": [1, 2, 3, 4, 5, 6, 7, 8, 9, 10, 11, 12, 13, 14, 15, 16, 17, 18, 19, 20, 21, 22, 23, 24, 25, 26, 27, 28, 29, 30, 31, 32, 33, 34, 35, 36, 37, 38, 39, 40, 41, 42, 43, 44, 45, 46, 47, 48, 49, 50, 51, 52, 53, 54, 55, 56, 57, 58, 59, 60, 61, 62, 63, 64, 65, 66, 67, 68, 69, 70, 71, 72, 73, 74, 75, 76, 77, 78, 79, 80, 81, 82, 83, 84, 85, 86, 87, 88, 89, 90, 91, 92, 93, 94, 95, 96, 97, 98, 99, 100, 101, 102, 103, 104, 105, 106, 107, 108, 109, 110, 111, 112, 113, 114, 115, 116, 117, 118, 119, 120, 121, 122, 123, 124, 125, 126, 127, 128, 129, 130, 131, 132, 133, 134, 135, 136, 137, 138, 139, 140, 141, 142, 143, 144, 145, 146, 147, 148, 149, 150, 151, 152, 153, 154, 155, 156, 157, 158, 159, 160, 161, 162, 163, 164, 165, 166, 167, 168, 169, 170, 171, 172, 173, 174, 175, 176, 177, 178, 179, 180, 181, 182, 183, 184, 185, 186, 187, 188, 189, 190, 191, 192, 193, 194, 195, 196, 197, 198, 199, 200, 201, 202, 203, 204, 205, 206, 207, 208, 209, 210, 211, 212, 213, 214, 215, 216, 217, 218, 219, 220, 221, 222, 223, 224, 225, 226, 227, 228, 229, 230, 231, 232, 233, 234, 235, 236, 237, 238, 239, 240, 241, 242, 243, 244, 245, 246, 247, 248, 249, 250, 251, 252, 253, 254, 255, 256, 257, 258, 259, 260, 261, 262, 263, 264, 265, 266, 267, 268, 269, 270, 271, 272, 273, 274, 275, 276, 277, 278, 279, 280, 281, 282, 283, 284, 285, 286, 287, 288, 289, 290, 291, 292, 293, 294, 295, 296, 297, 298, 299, 300, 301, 302, 303, 304, 305, 306, 307, 308, 309, 310, 311, 312, 313, 314, 315, 316, 317, 318, 319, 320, 321, 322, 323, 324, 325, 326, 327, 328, 329, 330, 331, 332, 333, 334, 335, 336, 337, 338, 339, 340, 341, 342, 343, 344, 345, 346, 347, 348, 349, 350, 351, 352, 353, 354, 355, 356, 357, 358, 359, 360, 361, 362, 363, 364, 365, 366, 367, 368, 369, 370, 371, 372, 373, 374, 375, 376, 377, 378, 379, 380, 381, 382, 383, 384, 385, 386, 387, 388, 389, 390, 391, 392, 393, 394, 395, 396, 397, 398, 399, 400, 401, 402, 403, 404, 405, 406, 407, 408, 409, 410, 411, 412, 413, 414, 415, 416, 417, 418, 419, 420, 421, 422, 423, 424, 425, 426, 427, 428, 429, 430, 431, 432, 433, 434, 435, 436, 437, 438, 439, 440, 441, 442, 443, 444, 445, 446, 447, 448, 449, 450, 451, 452, 453, 454, 455, 456, 457, 458, 459, 460, 461, 462, 463, 464, 465, 466, 467, 468, 469, 470, 471, 472, 473, 474, 475, 476, 477, 478, 479, 480, 481, 482, 483, 484, 485, 486, 487, 488, 489, 490, 491, 492, 493, 494, 495, 496, 497, 498, 499, 500, 501, 502, 503, 504, 505, 506, 507, 508, 509, 510, 511, 512, 513, 514, 515, 516, 517, 518, 519, 520, 521, 522, 523, 524, 525, 526, 527, 528, 529, 530, 531, 532, 533, 534, 535, 536, 537, 538, 539, 540, 541, 542, 543, 544, 545, 546, 547, 548, 549, 550, 551, 552, 553, 554, 555, 556, 557, 558, 559, 560, 561, 562, 563, 564, 565, 566, 567, 568, 569, 570, 571, 572, 573, 574, 575, 576, 577, 578, 579, 580, 581, 582, 583, 584, 585, 586, 587, 588, 589, 590, 591, 592, 593, 594, 595, 596, 597, 598, 599, 600, 601, 602, 603, 604, 605, 606, 607, 608, 609, 610, 611, 612, 613, 614, 615, 616, 617, 618, 619, 620, 621, 622, 623, 624, 625, 626, 627, 628, 629, 630, 631, 632, 633, 634, 635, 636, 637, 638, 639, 640, 641, 642, 643, 644, 645, 646, 647, 648, 649, 650, 651, 652, 653, 654, 655, 656, 657, 658, 659, 660, 661, 662, 663, 664, 665, 666, 667, 668, 669, 670, 671, 672, 673, 674, 675, 676, 677, 678, 679, 680, 681, 682, 683, 684, 685, 686, 687, 688, 689, 690, 691, 692, 693, 694, 695, 696, 697, 698, 699, 700, 701, 702, 703, 704, 705, 706, 707, 708, 709, 710, 711, 712, 713, 714, 715, 716, 717, 718, 719, 720, 721, 722, 723, 724, 725, 726, 727, 728, 729, 730, 731, 732, 733, 734, 735, 736, 737, 738, 739, 740, 741, 742, 743, 744, 745, 746, 747, 748, 749, 750, 751, 752, 753, 754, 755, 756, 757, 758, 759, 760, 761, 762, 763, 764, 765, 766, 767, 768, 769, 770, 771, 772, 773, 774, 775, 776, 777, 778, 779, 780, 781, 782, 783, 784, 785, 786, 787, 788, 789, 790, 791, 792, 793, 794, 795, 796, 797, 798, 799, 800, 801, 802, 803, 804, 805, 806, 807, 808, 809, 810, 811, 812, 813, 814, 815, 816, 817, 818, 819, 820, 821, 822, 823, 824, 825, 826, 827, 828, 829, 830, 831, 832, 833, 834, 835, 836, 837, 838, 839, 840, 841, 842, 843, 844, 845, 846, 847, 848, 849, 850, 851, 852, 853, 854, 855, 856, 857, 858, 859, 860, 861, 862, 863, 864, 865, 866, 867, 868, 869, 870, 871, 872, 873, 874, 875, 876, 877, 878, 879, 880, 881, 882, 883, 884, 885, 886, 887, 888, 889, 890, 891, 892, 893, 894, 895, 896, 897, 898, 899, 900, 901, 902, 903, 904, 905, 906, 907, 908, 909, 910, 911, 912, 913, 914, 915, 916, 917, 918, 919, 920, 921, 922, 923, 924, 925, 926, 927, 928, 929, 930, 931, 932, 933, 934, 935, 936, 937, 938, 939, 940, 941, 942, 943, 944, 945, 946, 947, 948, 949, 950, 951, 952, 953, 954, 955, 956, 957, 958, 959, 960, 961, 962, 963, 964, 965, 966, 967, 968, 969, 970, 971, 972, 973, 974, 975, 976, 977, 978, 979, 980, 981, 982, 983, 984, 985, 986, 987, 988, 989, 990, 991, 992, 993, 994, 995, 996, 997, 998, 999, 1000, 1001, 1002, 1003, 1004, 1005, 1006, 1007, 1008, 1009, 1010, 1011, 1012, 1013, 1014, 1015, 1016, 1017, 1018, 1019, 1020, 1021, 1022, 1023, 1024, 1025, 1026, 1027, 1028, 1029, 1030, 1031, 1032, 1033, 1034, 1035, 1036, 1037, 1038, 1039, 1040, 1041, 1042, 1043, 1044, 1045, 1046, 1047, 1048, 1049, 1050, 1051, 1052, 1053, 1054, 1055, 1056, 1057, 1058, 1059, 1060, 1061, 1062, 1063, 1064, 1065, 1066, 1067, 1068, 1069, 1070, 1071, 1072, 1073, 1074, 1075, 1076, 1077, 1078, 1079, 1080, 1081, 1082, 1083, 1084, 1085, 1086, 1087, 1088, 1089, 1090, 1091, 1092, 1093, 1094, 1095, 1096, 1097, 1098, 1099, 1100, 1101, 1102, 1103, 1104, 1105, 1106, 1107, 1108, 1109, 1110, 1111, 1112, 1113, 1114, 1115, 1116, 1117, 1118, 1119, 1120, 1121, 1122, 1123, 1124, 1125, 1126, 1127, 1128, 1129, 1130, 1131, 1132, 1133, 1134, 1135, 1136, 1137, 1138, 1139, 1140, 1141, 1142, 1143, 1144, 1145, 1146, 1147, 1148, 1149, 1150, 1151, 1152, 1153, 1154, 1155, 1156, 1157, 1158, 1159, 1160, 1161, 1162, 1163, 1164, 1165, 1166, 1167, 1168, 1169, 1170, 1171, 1172, 1173, 1174, 1175, 1176, 1177, 1178, 1179, 1180, 1181, 1182, 1183, 1184, 1185, 1186, 1187, 1188, 1189, 1190, 1191, 1192, 1193, 1194, 1195, 1196, 1197, 1198, 1199, 1200, 1201, 1202, 1203, 1204, 1205, 1206, 1207, 1208, 1209, 1210, 1211, 1212, 1213, 1214, 1215, 1216, 1217, 1218, 1219, 1220, 1221, 1222, 1223, 1224, 1225, 1226, 1227, 1228, 1229, 1230, 1231, 1232, 1233, 1234, 1235, 1236, 1237, 1238, 1239, 1240, 1241, 1242, 1243, 1244, 1245, 1246, 1247, 1248, 1249, 1250, 1251, 1252, 1253, 1254, 1255, 1256, 1257, 1258, 1259, 1260, 1261, 1262, 1263, 1264, 1265, 1266, 1267, 1268, 1269, 1270, 1271, 1272, 1273, 1274, 1275, 1276, 1277, 1278, 1279, 1280, 1281, 1282, 1283, 1284, 1285, 1286, 1287, 1288, 1289, 1290, 1291, 1292, 1293, 1294, 1295, 1296, 1297, 1298, 1299, 1300, 1301, 1302, 1303, 1304, 1305, 1306, 1307, 1308, 1309, 1310, 1311, 1312, 1313, 1314, 1315, 1316, 1317, 1318, 1319, 1320, 1321, 1322, 1323, 1324, 1325, 1326, 1327, 1328, 1329, 1330, 1331, 1332, 1333, 1334, 1335, 1336, 1337, 1338, 1339, 1340, 1341, 1342, 1343, 1344, 1345, 1346, 1347, 1348, 1349, 1350, 1351, 1352, 1353, 1354, 1355, 1356, 1357, 1358, 1359, 1360, 1361, 1362, 1363, 1364, 1365, 1366, 1367, 1368, 1369],
      "AcquisitionTime": ["212019.092500", "212021.092500", "212023.092500", "212025.092500", "212027.092500", "212029.092500", "212031.092500", "212033.092500", "212035.092500", "212037.092500", "212039.092500", "212041.092500", "212043.092500", "212045.092500", "212047.092500", "212049.092500", "212051.092500", "212053.092500", "212055.092500", "212057.092500", "212059.092500", "212101.092500", "212103.092500", "212105.092500", "212107.092500", "212109.092500", "212111.092500", "212113.092500", "212115.092500", "212117.092500", "212119.092500", "212121.092500", "212123.092500", "212125.092500", "212127.092500", "212129.092500", "212131.092500", "212133.092500", "212135.092500", "212137.092500", "212139.092500", "212141.092500", "212143.092500", "212145.092500", "212147.092500", "212149.092500", "212151.092500", "212153.092500", "212155.092500", "212157.092500", "212159.092500", "212201.092500", "212203.092500", "212205.092500", "212207.092500", "212209.092500", "212211.092500", "212213.092500", "212215.092500", "212217.092500", "212219.092500", "212221.092500", "212223.092500", "212225.092500", "212227.092500", "212229.092500", "212231.092500", "212233.092500", "212235.092500", "212237.092500", "212239.092500", "212241.092500", "212243.092500", "212245.092500", "212247.092500", "212249.092500", "212251.092500", "212253.092500", "212255.092500", "212257.092500", "212259.092500", "212301.092500", "212303.092500", "212305.092500", "212307.092500", "212309.092500", "212311.092500", "212313.092500", "212315.092500", "212317.092500", "212319.092500", "212321.092500", "212323.092500", "212325.092500", "212327.092500", "212329.092500", "212331.092500", "212333.092500", "212335.092500", "212337.092500", "212339.092500", "212341.092500", "212343.092500", "212345.092500", "212347.092500", "212349.092500", "212351.092500", "212353.092500", "212355.092500", "212357.092500", "212359.092500", "212401.092500", "212403.092500", "212405.092500", "212407.092500", "212409.092500", "212411.092500", "212413.092500", "212415.092500", "212417.092500", "212419.092500", "212421.092500", "212423.092500", "212425.092500", "212427.092500", "212429.092500", "212431.092500", "212433.092500", "212435.092500", "212437.092500", "212439.092500", "212441.092500", "212443.092500", "212445.092500", "212447.092500", "212449.092500", "212451.092500", "212453.092500", "212455.092500", "212457.092500", "212459.092500", "212501.092500", "212503.092500", "212505.092500", "212507.092500", "212509.092500", "212511.092500", "212513.092500", "212515.092500", "212517.092500", "212519.092500", "212521.092500", "212523.092500", "212525.092500", "212527.092500", "212529.092500", "212531.092500", "212533.092500", "212535.092500", "212537.092500", "212539.092500", "212541.092500", "212543.092500", "212545.092500", "212547.092500", "212549.092500", "212551.092500", "212553.092500", "212555.092500", "212557.092500", "212559.092500", "212601.092500", "212603.092500", "212605.092500", "212607.092500", "212609.092500", "212611.092500", "212613.092500", "212615.092500", "212617.092500", "212619.092500", "212621.092500", "212623.092500", "212625.092500", "212627.092500", "212629.092500", "212631.092500", "212633.092500", "212635.092500", "212637.092500", "212639.092500", "212641.092500", "212643.092500", "212645.092500", "212647.092500", "212649.092500", "212651.092500", "212653.092500", "212655.092500", "212657.092500", "212659.092500", "212701.092500", "212703.092500", "212705.092500", "212707.092500", "212709.092500", "212711.092500", "212713.092500", "212715.092500", "212717.092500", "212719.092500", "212721.092500", "212723.092500", "212725.092500", "212727.092500", "212729.092500", "212731.092500", "212733.092500", "212735.092500", "212737.092500", "212739.092500", "212741.092500", "212743.092500", "212745.092500", "212747.092500", "212749.092500", "212751.092500", "212753.092500", "212755.092500", "212757.092500", "212759.092500", "212801.092500", "212803.092500", "212805.092500", "212807.092500", "212809.092500", "212811.092500", "212813.092500", "212815.092500", "212817.092500", "212819.092500", "212821.092500", "212823.092500", "212825.092500", "212827.092500", "212829.092500", "212831.092500", "212833.092500", "212835.092500", "212837.092500", "212839.092500", "212841.092500", "212843.092500", "212845.092500", "212847.092500", "212849.092500", "212851.092500", "212853.092500", "212855.092500", "212857.092500", "212859.092500", "212901.092500", "212903.092500", "212905.092500", "212907.092500", "212909.092500", "212911.092500", "212913.092500", "212915.092500", "212917.092500", "212919.092500", "212921.092500", "212923.092500", "212925.092500", "212927.092500", "212929.092500", "212931.092500", "212933.092500", "212935.092500", "212937.092500", "212939.092500", "212941.092500", "212943.092500", "212945.092500", "212947.092500", "212949.092500", "212951.092500", "212953.092500", "212955.092500", "212957.092500", "212959.092500", "213001.092500", "213003.092500", "213005.092500", "213007.092500", "213009.092500", "213011.092500", "213013.092500", "213015.092500", "213017.092500", "213019.092500", "213021.092500", "213023.092500", "213025.092500", "213027.092500", "213029.092500", "213031.092500", "213033.092500", "213035.092500", "213037.092500", "213039.092500", "213041.092500", "213043.092500", "213045.092500", "213047.092500", "213049.092500", "213051.092500", "213053.092500", "213055.092500", "213057.092500", "213059.092500", "213101.092500", "213103.092500", "213105.092500", "213107.092500", "213109.092500", "213111.092500", "213113.092500", "213115.092500", "213117.092500", "213119.092500", "213121.092500", "213123.092500", "213125.092500", "213127.092500", "213129.092500", "213131.092500", "213133.092500", "213135.092500", "213137.092500", "213139.092500", "213141.092500", "213143.092500", "213145.092500", "213147.092500", "213149.092500", "213151.092500", "213153.092500", "213155.092500", "213157.092500", "213159.092500", "213201.092500", "213203.092500", "213205.092500", "213207.092500", "213209.092500", "213211.092500", "213213.092500", "213215.092500", "213217.092500", "213219.092500", "213221.092500", "213223.092500", "213225.092500", "213227.092500", "213229.092500", "213231.092500", "213233.092500", "213235.092500", "213237.092500", "213239.092500", "213241.092500", "213243.092500", "213245.092500", "213247.092500", "213249.092500", "213251.092500", "213253.092500", "213255.092500", "213257.092500", "213259.092500", "213301.092500", "213303.092500", "213305.092500", "213307.092500", "213309.092500", "213311.092500", "213313.092500", "213315.092500", "213317.092500", "213319.092500", "213321.092500", "213323.092500", "213325.092500", "213327.092500", "213329.092500", "213331.092500", "213333.092500", "213335.092500", "213337.092500", "213339.092500", "213341.092500", "213343.092500", "213345.092500", "213347.092500", "213349.092500", "213351.092500", "213353.092500", "213355.092500", "213357.092500", "213359.092500", "213401.092500", "213403.092500", "213405.092500", "213407.092500", "213409.092500", "213411.092500", "213413.092500", "213415.092500", "213417.092500", "213419.092500", "213421.092500", "213423.092500", "213425.092500", "213427.092500", "213429.092500", "213431.092500", "213433.092500", "213435.092500", "213437.092500", "213439.092500", "213441.092500", "213443.092500", "213445.092500", "213447.092500", "213449.092500", "213451.092500", "213453.092500", "213455.092500", "213457.092500", "213459.092500", "213501.092500", "213503.092500", "213505.092500", "213507.092500", "213509.092500", "213511.092500", "213513.092500", "213515.092500", "213517.092500", "213519.092500", "213521.092500", "213523.092500", "213525.092500", "213527.092500", "213529.092500", "213531.092500", "213533.092500", "213535.092500", "213537.092500", "213539.092500", "213541.092500", "213543.092500", "213545.092500", "213547.092500", "213549.092500", "213551.092500", "213553.092500", "213555.092500", "213557.092500", "213559.092500", "213601.092500", "213603.092500", "213605.092500", "213607.092500", "213609.092500", "213611.092500", "213613.092500", "213615.092500", "213617.092500", "213619.092500", "213621.092500", "213623.092500", "213625.092500", "213627.092500", "213629.092500", "213631.092500", "213633.092500", "213635.092500", "213637.092500", "213639.092500", "213641.092500", "213643.092500", "213645.092500", "213647.092500", "213649.092500", "213651.092500", "213653.092500", "213655.092500", "213657.092500", "213659.092500", "213701.092500", "213703.092500", "213705.092500", "213707.092500", "213709.092500", "213711.092500", "213713.092500", "213715.092500", "213717.092500", "213719.092500", "213721.092500", "213723.092500", "213725.092500", "213727.092500", "213729.092500", "213731.092500", "213733.092500", "213735.092500", "213737.092500", "213739.092500", "213741.092500", "213743.092500", "213745.092500", "213747.092500", "213749.092500", "213751.092500", "213753.092500", "213755.092500", "213757.092500", "213759.092500", "213801.092500", "213803.092500", "213805.092500", "213807.092500", "213809.092500", "213811.092500", "213813.092500", "213815.092500", "213817.092500", "213819.092500", "213821.092500", "213823.092500", "213825.092500", "213827.092500", "213829.092500", "213831.092500", "213833.092500", "213835.092500", "213837.092500", "213839.092500", "213841.092500", "213843.092500", "213845.092500", "213847.092500", "213849.092500", "213851.092500", "213853.092500", "213855.092500", "213857.092500", "213859.092500", "213901.092500", "213903.092500", "213905.092500", "213907.092500", "213909.092500", "213911.092500", "213913.092500", "213915.092500", "213917.092500", "213919.092500", "213921.092500", "213923.092500", "213925.092500", "213927.092500", "213929.092500", "213931.092500", "213933.092500", "213935.092500", "213937.092500", "213939.092500", "213941.092500", "213943.092500", "213945.092500", "213947.092500", "213949.092500", "213951.092500", "213953.092500", "213955.092500", "213957.092500", "213959.092500", "214001.092500", "214003.092500", "214005.092500", "214007.092500", "214009.092500", "214011.092500", "214013.092500", "214015.092500", "214017.092500", "214019.092500", "214021.092500", "214023.092500", "214025.092500", "214027.092500", "214029.092500", "214031.092500", "214033.092500", "214035.092500", "214037.092500", "214039.092500", "214041.092500", "214043.092500", "214045.092500", "214047.092500", "214049.092500", "214051.092500", "214053.092500", "214055.092500", "214057.092500", "214059.092500", "214101.092500", "214103.092500", "214105.092500", "214107.092500", "214109.092500", "214111.092500", "214113.092500", "214115.092500", "214117.092500", "214119.092500", "214121.092500", "214123.092500", "214125.092500", "214127.092500", "214129.092500", "214131.092500", "214133.092500", "214135.092500", "214137.092500", "214139.092500", "214141.092500", "214143.092500", "214145.092500", "214147.092500", "214149.092500", "214151.092500", "214153.092500", "214155.092500", "214157.092500", "214159.092500", "214201.092500", "214203.092500", "214205.092500", "214207.092500", "214209.092500", "214211.092500", "214213.092500", "214215.092500", "214217.092500", "214219.092500", "214221.092500", "214223.092500", "214225.092500", "214227.092500", "214229.092500", "214231.092500", "214233.092500", "214235.092500", "214237.092500", "214239.092500", "214241.092500", "214243.092500", "214245.092500", "214247.092500", "214249.092500", "214251.092500", "214253.092500", "214255.092500", "214257.092500", "214259.092500", "214301.092500", "214303.092500", "214305.092500", "214307.092500", "214309.092500", "214311.092500", "214313.092500", "214315.092500", "214317.092500", "214319.092500", "214321.092500", "214323.092500", "214325.092500", "214327.092500", "214329.092500", "214331.092500", "214333.092500", "214335.092500", "214337.092500", "214339.092500", "214341.092500", "214343.092500", "214345.092500", "214347.092500", "214349.092500", "214351.092500", "214353.092500", "214355.092500", "214357.092500", "214359.092500", "214401.092500", "214403.092500", "214405.092500", "214407.092500", "214409.092500", "214411.092500", "214413.092500", "214415.092500", "214417.092500", "214419.092500", "214421.092500", "214423.092500", "214425.092500", "214427.092500", "214429.092500", "214431.092500", "214433.092500", "214435.092500", "214437.092500", "214439.092500", "214441.092500", "214443.092500", "214445.092500", "214447.092500", "214449.092500", "214451.092500", "214453.092500", "214455.092500", "214457.092500", "214459.092500", "214501.092500", "214503.092500", "214505.092500", "214507.092500", "214509.092500", "214511.092500", "214513.092500", "214515.092500", "214517.092500", "214519.092500", "214521.092500", "214523.092500", "214525.092500", "214527.092500", "214529.092500", "214531.092500", "214533.092500", "214535.092500", "214537.092500", "214539.092500", "214541.092500", "214543.092500", "214545.092500", "214547.092500", "214549.092500", "214551.092500", "214553.092500", "214555.092500", "214557.092500", "214559.092500", "214601.092500", "214603.092500", "214605.092500", "214607.092500", "214609.092500", "214611.092500", "214613.092500", "214615.092500", "214617.092500", "214619.092500", "214621.092500", "214623.092500", "214625.092500", "214627.092500", "214629.092500", "214631.092500", "214633.092500", "214635.092500", "214637.092500", "214639.092500", "214641.092500", "214643.092500", "214645.092500", "214647.092500", "214649.092500", "214651.092500", "214653.092500", "214655.092500", "214657.092500", "214659.092500", "214701.092500", "214703.092500", "214705.092500", "214707.092500", "214709.092500", "214711.092500", "214713.092500", "214715.092500", "214717.092500", "214719.092500", "214721.092500", "214723.092500", "214725.092500", "214727.092500", "214729.092500", "214731.092500", "214733.092500", "214735.092500", "214737.092500", "214739.092500", "214741.092500", "214743.092500", "214745.092500", "214747.092500", "214749.092500", "214751.092500", "214753.092500", "214755.092500", "214757.092500", "214759.092500", "214801.092500", "214803.092500", "214805.092500", "214807.092500", "214809.092500", "214811.092500", "214813.092500", "214815.092500", "214817.092500", "214819.092500", "214821.092500", "214823.092500", "214825.092500", "214827.092500", "214829.092500", "214831.092500", "214833.092500", "214835.092500", "214837.092500", "214839.092500", "214841.092500", "214843.092500", "214845.092500", "214847.092500", "214849.092500", "214851.092500", "214853.092500", "214855.092500", "214857.092500", "214859.092500", "214901.092500", "214903.092500", "214905.092500", "214907.092500", "214909.092500", "214911.092500", "214913.092500", "214915.092500", "214917.092500", "214919.092500", "214921.092500", "214923.092500", "214925.092500", "214927.092500", "214929.092500", "214931.092500", "214933.092500", "214935.092500", "214937.092500", "214939.092500", "214941.092500", "214943.092500", "214945.092500", "214947.092500", "214949.092500", "214951.092500", "214953.092500", "214955.092500", "214957.092500", "214959.092500", "215001.092500", "215003.092500", "215005.092500", "215007.092500", "215009.092500", "215011.092500", "215013.092500", "215015.092500", "215017.092500", "215019.092500", "215021.092500", "215023.092500", "215025.092500", "215027.092500", "215029.092500", "215031.092500", "215033.092500", "215035.092500", "215037.092500", "215039.092500", "215041.092500", "215043.092500", "215045.092500", "215047.092500", "215049.092500", "215051.092500", "215053.092500", "215055.092500", "215057.092500", "215059.092500", "215101.092500", "215103.092500", "215105.092500", "215107.092500", "215109.092500", "215111.092500", "215113.092500", "215115.092500", "215117.092500", "215119.092500", "215121.092500", "215123.092500", "215125.092500", "215127.092500", "215129.092500", "215131.092500", "215133.092500", "215135.092500", "215137.092500", "215139.092500", "215141.092500", "215143.092500", "215145.092500", "215147.092500", "215149.092500", "215151.092500", "215153.092500", "215155.092500", "215157.092500", "215159.092500", "215201.092500", "215203.092500", "215205.092500", "215207.092500", "215209.092500", "215211.092500", "215213.092500", "215215.092500", "215217.092500", "215219.092500", "215221.092500", "215223.092500", "215225.092500", "215227.092500", "215229.092500", "215231.092500", "215233.092500", "215235.092500", "215237.092500", "215239.092500", "215241.092500", "215243.092500", "215245.092500", "215247.092500", "215249.092500", "215251.092500", "215253.092500", "215255.092500", "215257.092500", "215259.092500", "215301.092500", "215303.092500", "215305.092500", "215307.092500", "215309.092500", "215311.092500", "215313.092500", "215315.092500", "215317.092500", "215319.092500", "215321.092500", "215323.092500", "215325.092500", "215327.092500", "215329.092500", "215331.092500", "215333.092500", "215335.092500", "215337.092500", "215339.092500", "215341.092500", "215343.092500", "215345.092500", "215347.092500", "215349.092500", "215351.092500", "215353.092500", "215355.092500", "215357.092500", "215359.092500", "215401.092500", "215403.092500", "215405.092500", "215407.092500", "215409.092500", "215411.092500", "215413.092500", "215415.092500", "215417.092500", "215419.092500", "215421.092500", "215423.092500", "215425.092500", "215427.092500", "215429.092500", "215431.092500", "215433.092500", "215435.092500", "215437.092500", "215439.092500", "215441.092500", "215443.092500", "215445.092500", "215447.092500", "215449.092500", "215451.092500", "215453.092500", "215455.092500", "215457.092500", "215459.092500", "215501.092500", "215503.092500", "215505.092500", "215507.092500", "215509.092500", "215511.092500", "215513.092500", "215515.092500", "215517.092500", "215519.092500", "215521.092500", "215523.092500", "215525.092500", "215527.092500", "215529.092500", "215531.092500", "215533.092500", "215535.092500", "215537.092500", "215539.092500", "215541.092500", "215543.0