{
  "AcquisitionMatrixPE": 80,
  "AcquisitionNumber": 1,
  "AcquisitionTime": "13:34:23.185000",
  "BandwidthPerPixelPhaseEncode": 51.02,
  "BaseResolution": 80,
  "BodyPartExamined": "BRAIN",
  "ConsistencyInfo": "N4_VE11C_LATEST_20160120",
  "ConversionSoftware": "dcm2niix",
  "ConversionSoftwareVersion": "v1.0.20170923 (OpenJPEG build) GCC6.3.0",
  "DerivedVendorReportedEchoSpacing": 0.000490004,
  "DeviceSerialNumber": "66112",
  "DwellTime": 2.2e-06,
  "EchoTime": 0.025,
  "EchoTrainLength": 39,
  "EffectiveEchoSpacing": 0.000245002,
  "FlipAngle": 75,
  "ImageType": [
    "ORIGINAL",
    "PRIMARY",
    "FMRI",
    "NONE",
    "ND",
    "NORM",
    "MOSAIC"
],
  "InstitutionAddress": "Maynard_3_Hanover_NH_US_03755",
  "InstitutionName": "Dartmouth_College_-_PBS",
  "MagneticFieldStrength": 3,
  "Manufacturer": "Siemens",
  "ManufacturersModelName": "Prisma",
  "Modality": "MR",
  "ParallelReductionFactorInPlane": 2,
  "PartialFourier": 1,
  "PercentPhaseFOV": 100,
  "PhaseEncodingDirection": "j-",
  "PhaseEncodingSteps": 79,
  "PhaseResolution": 1,
  "ProcedureStepDescription": "Chang_Chang_1039_fnlpilot",
  "ProtocolName": "func_run-01_task-movie",
  "PulseSequenceDetails": "%SiemensSeq%_ep2d_bold",
  "ReceiveCoilActiveElements": "HEA;HEP",
  "ReceiveCoilName": "Head_32",
  "ReconMatrixPE": 80,
  "RepetitionTime": 2,
  "ScanOptions": "FS",
  "ScanningSequence": "EP",
  "SequenceName": "_epfid2d1_80",
  "SequenceVariant": "SK",
  "SeriesDescription": "func_run-01_task-movie",
  "SliceTiming": [0.99, 0, 1.04, 0.05, 1.09, 0.1, 1.1375, 0.1475, 1.1875, 0.1975, 1.2375, 0.2475, 1.2875, 0.2975, 1.3375, 0.3475, 1.385, 0.395, 1.435, 0.445, 1.485, 0.495, 1.535, 0.545, 1.585, 0.595, 1.6325, 0.6425, 1.6825, 0.6925, 1.7325, 0.7425, 1.7825, 0.7925, 1.8325, 0.8425, 1.88, 0.89, 1.93, 0.94],
  "SoftwareVersions": "syngo_MR_E11",
  "StationName": "AWP66112",
  "TaskName": "movie",
  "TotalReadoutTime": 0.0193552,
  "dcmmeta_affine": [
    [-2.995485544204712, -0.1533171683549881, -0.05967271327972412, 127.93547821044922],
    [-0.16018719971179962, 2.966068983078003, 0.42044582962989807, -101.26591491699219],
    [-0.03751060739159584, -0.42299941182136536, 2.969791889190674, -24.09756088256836],
    [0.0, 0.0, 0.0, 1.0]
],
  "dcmmeta_reorient_transform": [
    [0.0, -1.0, 0.0, 79.0],
    [1.0, 0.0, 0.0, 0.0],
    [0.0, 0.0, 1.0, 0.0],
    [0.0, 0.0, 0.0, 1.0]
],
  "dcmmeta_shape": [80, 80, 40, 1369],
  "dcmmeta_slice_dim": 2,
  "dcmmeta_version": 0.6,
  "global": {
    "const": {
      "AccessionNumber": "A001228",
      "AcquisitionMatrix": [80, 0, 0, 80],
      "AngioFlag": "N",
      "BitsAllocated": 16,
      "BitsStored": 12,
      "BodyPartExamined": "BRAIN",
      "Columns": 560,
      "EchoNumbers": 1,
      "EchoTime": 25.0,
      "EchoTrainLength": 39,
      "FlipAngle": 75.0,
      "HighBit": 11,
      "ImageOrientationPatient": [0.99849514628256, 0.05339573426556, -0.0125035359967, -0.0511057213176, 0.98868966845698, 0.14099980402479],
      "ImagePositionPatient": [-797.94380973295, -883.35502655598, -150.03182821731],
      "ImageType": [
        "ORIGINAL",
        "PRIMARY",
        "FMRI",
        "NONE",
        "ND",
        "NORM",
        "MOSAIC"
],
      "ImagedNucleus": "1H",
      "ImagingFrequency": 123.252294,
      "InPlanePhaseEncodingDirection": "COL",
      "MRAcquisitionType": "2D",
      "MagneticFieldStrength": 3.0,
      "Manufacturer": "SIEMENS",
      "ManufacturerModelName": "Prisma",
      "Modality": "MR",
      "NumberOfAverages": 1.0,
      "NumberOfPhaseEncodingSteps": 79,
      "PercentPhaseFieldOfView": 100.0,
      "PercentSampling": 100.0,
      "PerformedProcedureStepStartTime": "131947.443000",
      "PhotometricInterpretation": "MONOCHROME2",
      "PixelBandwidth": 2840.0,
      "PixelRepresentation": 0,
      "PixelSpacing": [3.0, 3.0],
      "PositionReferenceIndicator": "",
      "ProtocolName": "func_run-01_task-movie",
      "RepetitionTime": 2000.0,
      "Rows": 560,
      "SAR": 0.09625089921097,
      "SamplesPerPixel": 1,
      "ScanOptions": "FS",
      "ScanningSequence": "EP",
      "SequenceName": "*epfid2d1_80",
      "SequenceVariant": "SK",
      "SeriesDescription": "func_run-01_task-movie",
      "SeriesNumber": 9,
      "SeriesTime": "133424.499000",
      "SliceLocation": -40.591945654237,
      "SliceThickness": 3.0,
      "SmallestImagePixelValue": 0,
      "SoftwareVersions": "syngo MR E11",
      "SpacingBetweenSlices": 2.999999915015,
      "SpecificCharacterSet": "ISO_IR 100",
      "StudyID": "1",
      "StudyTime": "131947.390000",
      "TransmitCoilName": "Body",
      "VariableFlipAngleFlag": "N",
      "WindowCenterWidthExplanation": "Algo1",
      "dBdt": 0.0},
    "slices": {}
  },
  "time": {
    "samples": {
      "AcquisitionNumber": [1, 2, 3, 4, 5, 6, 7, 8, 9, 10, 11, 12, 13, 14, 15, 16, 17, 18, 19, 20, 21, 22, 23, 24, 25, 26, 27, 28, 29, 30, 31, 32, 33, 34, 35, 36, 37, 38, 39, 40, 41, 42, 43, 44, 45, 46, 47, 48, 49, 50, 51, 52, 53, 54, 55, 56, 57, 58, 59, 60, 61, 62, 63, 64, 65, 66, 67, 68, 69, 70, 71, 72, 73, 74, 75, 76, 77, 78, 79, 80, 81, 82, 83, 84, 85, 86, 87, 88, 89, 90, 91, 92, 93, 94, 95, 96, 97, 98, 99, 100, 101, 102, 103, 104, 105, 106, 107, 108, 109, 110, 111, 112, 113, 114, 115, 116, 117, 118, 119, 120, 121, 122, 123, 124, 125, 126, 127, 128, 129, 130, 131, 132, 133, 134, 135, 136, 137, 138, 139, 140, 141, 142, 143, 144, 145, 146, 147, 148, 149, 150, 151, 152, 153, 154, 155, 156, 157, 158, 159, 160, 161, 162, 163, 164, 165, 166, 167, 168, 169, 170, 171, 172, 173, 174, 175, 176, 177, 178, 179, 180, 181, 182, 183, 184, 185, 186, 187, 188, 189, 190, 191, 192, 193, 194, 195, 196, 197, 198, 199, 200, 201, 202, 203, 204, 205, 206, 207, 208, 209, 210, 211, 212, 213, 214, 215, 216, 217, 218, 219, 220, 221, 222, 223, 224, 225, 226, 227, 228, 229, 230, 231, 232, 233, 234, 235, 236, 237, 238, 239, 240, 241, 242, 243, 244, 245, 246, 247, 248, 249, 250, 251, 252, 253, 254, 255, 256, 257, 258, 259, 260, 261, 262, 263, 264, 265, 266, 267, 268, 269, 270, 271, 272, 273, 274, 275, 276, 277, 278, 279, 280, 281, 282, 283, 284, 285, 286, 287, 288, 289, 290, 291, 292, 293, 294, 295, 296, 297, 298, 299, 300, 301, 302, 303, 304, 305, 306, 307, 308, 309, 310, 311, 312, 313, 314, 315, 316, 317, 318, 319, 320, 321, 322, 323, 324, 325, 326, 327, 328, 329, 330, 331, 332, 333, 334, 335, 336, 337, 338, 339, 340, 341, 342, 343, 344, 345, 346, 347, 348, 349, 350, 351, 352, 353, 354, 355, 356, 357, 358, 359, 360, 361, 362, 363, 364, 365, 366, 367, 368, 369, 370, 371, 372, 373, 374, 375, 376, 377, 378, 379, 380, 381, 382, 383, 384, 385, 386, 387, 388, 389, 390, 391, 392, 393, 394, 395, 396, 397, 398, 399, 400, 401, 402, 403, 404, 405, 406, 407, 408, 409, 410, 411, 412, 413, 414, 415, 416, 417, 418, 419, 420, 421, 422, 423, 424, 425, 426, 427, 428, 429, 430, 431, 432, 433, 434, 435, 436, 437, 438, 439, 440, 441, 442, 443, 444, 445, 446, 447, 448, 449, 450, 451, 452, 453, 454, 455, 456, 457, 458, 459, 460, 461, 462, 463, 464, 465, 466, 467, 468, 469, 470, 471, 472, 473, 474, 475, 476, 477, 478, 479, 480, 481, 482, 483, 484, 485, 486, 487, 488, 489, 490, 491, 492, 493, 494, 495, 496, 497, 498, 499, 500, 501, 502, 503, 504, 505, 506, 507, 508, 509, 510, 511, 512, 513, 514, 515, 516, 517, 518, 519, 520, 521, 522, 523, 524, 525, 526, 527, 528, 529, 530, 531, 532, 533, 534, 535, 536, 537, 538, 539, 540, 541, 542, 543, 544, 545, 546, 547, 548, 549, 550, 551, 552, 553, 554, 555, 556, 557, 558, 559, 560, 561, 562, 563, 564, 565, 566, 567, 568, 569, 570, 571, 572, 573, 574, 575, 576, 577, 578, 579, 580, 581, 582, 583, 584, 585, 586, 587, 588, 589, 590, 591, 592, 593, 594, 595, 596, 597, 598, 599, 600, 601, 602, 603, 604, 605, 606, 607, 608, 609, 610, 611, 612, 613, 614, 615, 616, 617, 618, 619, 620, 621, 622, 623, 624, 625, 626, 627, 628, 629, 630, 631, 632, 633, 634, 635, 636, 637, 638, 639, 640, 641, 642, 643, 644, 645, 646, 647, 648, 649, 650, 651, 652, 653, 654, 655, 656, 657, 658, 659, 660, 661, 662, 663, 664, 665, 666, 667, 668, 669, 670, 671, 672, 673, 674, 675, 676, 677, 678, 679, 680, 681, 682, 683, 684, 685, 686, 687, 688, 689, 690, 691, 692, 693, 694, 695, 696, 697, 698, 699, 700, 701, 702, 703, 704, 705, 706, 707, 708, 709, 710, 711, 712, 713, 714, 715, 716, 717, 718, 719, 720, 721, 722, 723, 724, 725, 726, 727, 728, 729, 730, 731, 732, 733, 734, 735, 736, 737, 738, 739, 740, 741, 742, 743, 744, 745, 746, 747, 748, 749, 750, 751, 752, 753, 754, 755, 756, 757, 758, 759, 760, 761, 762, 763, 764, 765, 766, 767, 768, 769, 770, 771, 772, 773, 774, 775, 776, 777, 778, 779, 780, 781, 782, 783, 784, 785, 786, 787, 788, 789, 790, 791, 792, 793, 794, 795, 796, 797, 798, 799, 800, 801, 802, 803, 804, 805, 806, 807, 808, 809, 810, 811, 812, 813, 814, 815, 816, 817, 818, 819, 820, 821, 822, 823, 824, 825, 826, 827, 828, 829, 830, 831, 832, 833, 834, 835, 836, 837, 838, 839, 840, 841, 842, 843, 844, 845, 846, 847, 848, 849, 850, 851, 852, 853, 854, 855, 856, 857, 858, 859, 860, 861, 862, 863, 864, 865, 866, 867, 868, 869, 870, 871, 872, 873, 874, 875, 876, 877, 878, 879, 880, 881, 882, 883, 884, 885, 886, 887, 888, 889, 890, 891, 892, 893, 894, 895, 896, 897, 898, 899, 900, 901, 902, 903, 904, 905, 906, 907, 908, 909, 910, 911, 912, 913, 914, 915, 916, 917, 918, 919, 920, 921, 922, 923, 924, 925, 926, 927, 928, 929, 930, 931, 932, 933, 934, 935, 936, 937, 938, 939, 940, 941, 942, 943, 944, 945, 946, 947, 948, 949, 950, 951, 952, 953, 954, 955, 956, 957, 958, 959, 960, 961, 962, 963, 964, 965, 966, 967, 968, 969, 970, 971, 972, 973, 974, 975, 976, 977, 978, 979, 980, 981, 982, 983, 984, 985, 986, 987, 988, 989, 990, 991, 992, 993, 994, 995, 996, 997, 998, 999, 1000, 1001, 1002, 1003, 1004, 1005, 1006, 1007, 1008, 1009, 1010, 1011, 1012, 1013, 1014, 1015, 1016, 1017, 1018, 1019, 1020, 1021, 1022, 1023, 1024, 1025, 1026, 1027, 1028, 1029, 1030, 1031, 1032, 1033, 1034, 1035, 1036, 1037, 1038, 1039, 1040, 1041, 1042, 1043, 1044, 1045, 1046, 1047, 1048, 1049, 1050, 1051, 1052, 1053, 1054, 1055, 1056, 1057, 1058, 1059, 1060, 1061, 1062, 1063, 1064, 1065, 1066, 1067, 1068, 1069, 1070, 1071, 1072, 1073, 1074, 1075, 1076, 1077, 1078, 1079, 1080, 1081, 1082, 1083, 1084, 1085, 1086, 1087, 1088, 1089, 1090, 1091, 1092, 1093, 1094, 1095, 1096, 1097, 1098, 1099, 1100, 1101, 1102, 1103, 1104, 1105, 1106, 1107, 1108, 1109, 1110, 1111, 1112, 1113, 1114, 1115, 1116, 1117, 1118, 1119, 1120, 1121, 1122, 1123, 1124, 1125, 1126, 1127, 1128, 1129, 1130, 1131, 1132, 1133, 1134, 1135, 1136, 1137, 1138, 1139, 1140, 1141, 1142, 1143, 1144, 1145, 1146, 1147, 1148, 1149, 1150, 1151, 1152, 1153, 1154, 1155, 1156, 1157, 1158, 1159, 1160, 1161, 1162, 1163, 1164, 1165, 1166, 1167, 1168, 1169, 1170, 1171, 1172, 1173, 1174, 1175, 1176, 1177, 1178, 1179, 1180, 1181, 1182, 1183, 1184, 1185, 1186, 1187, 1188, 1189, 1190, 1191, 1192, 1193, 1194, 1195, 1196, 1197, 1198, 1199, 1200, 1201, 1202, 1203, 1204, 1205, 1206, 1207, 1208, 1209, 1210, 1211, 1212, 1213, 1214, 1215, 1216, 1217, 1218, 1219, 1220, 1221, 1222, 1223, 1224, 1225, 1226, 1227, 1228, 1229, 1230, 1231, 1232, 1233, 1234, 1235, 1236, 1237, 1238, 1239, 1240, 1241, 1242, 1243, 1244, 1245, 1246, 1247, 1248, 1249, 1250, 1251, 1252, 1253, 1254, 1255, 1256, 1257, 1258, 1259, 1260, 1261, 1262, 1263, 1264, 1265, 1266, 1267, 1268, 1269, 1270, 1271, 1272, 1273, 1274, 1275, 1276, 1277, 1278, 1279, 1280, 1281, 1282, 1283, 1284, 1285, 1286, 1287, 1288, 1289, 1290, 1291, 1292, 1293, 1294, 1295, 1296, 1297, 1298, 1299, 1300, 1301, 1302, 1303, 1304, 1305, 1306, 1307, 1308, 1309, 1310, 1311, 1312, 1313, 1314, 1315, 1316, 1317, 1318, 1319, 1320, 1321, 1322, 1323, 1324, 1325, 1326, 1327, 1328, 1329, 1330, 1331, 1332, 1333, 1334, 1335, 1336, 1337, 1338, 1339, 1340, 1341, 1342, 1343, 1344, 1345, 1346, 1347, 1348, 1349, 1350, 1351, 1352, 1353, 1354, 1355, 1356, 1357, 1358, 1359, 1360, 1361, 1362, 1363, 1364, 1365, 1366, 1367, 1368, 1369],
      "AcquisitionTime": ["133423.185000", "133425.185000", "133427.185000", "133429.185000", "133431.185000", "133433.185000", "133435.185000", "133437.185000", "133439.185000", "133441.185000", "133443.185000", "133445.185000", "133447.185000", "133449.185000", "133451.185000", "133453.185000", "133455.185000", "133457.185000", "133459.185000", "133501.185000", "133503.185000", "133505.185000", "133507.185000", "133509.185000", "133511.185000", "133513.185000", "133515.185000", "133517.185000", "133519.185000", "133521.185000", "133523.185000", "133525.185000", "133527.185000", "133529.185000", "133531.185000", "133533.185000", "133535.185000", "133537.185000", "133539.185000", "133541.185000", "133543.185000", "133545.185000", "133547.185000", "133549.185000", "133551.185000", "133553.185000", "133555.185000", "133557.185000", "133559.185000", "133601.185000", "133603.185000", "133605.185000", "133607.185000", "133609.185000", "133611.185000", "133613.185000", "133615.185000", "133617.185000", "133619.185000", "133621.185000", "133623.185000", "133625.185000", "133627.185000", "133629.185000", "133631.185000", "133633.185000", "133635.185000", "133637.185000", "133639.185000", "133641.185000", "133643.185000", "133645.185000", "133647.185000", "133649.185000", "133651.185000", "133653.185000", "133655.185000", "133657.185000", "133659.185000", "133701.185000", "133703.185000", "133705.185000", "133707.185000", "133709.185000", "133711.185000", "133713.185000", "133715.185000", "133717.185000", "133719.185000", "133721.185000", "133723.185000", "133725.185000", "133727.185000", "133729.185000", "133731.185000", "133733.185000", "133735.185000", "133737.185000", "133739.185000", "133741.185000", "133743.185000", "133745.185000", "133747.185000", "133749.185000", "133751.185000", "133753.185000", "133755.185000", "133757.185000", "133759.185000", "133801.185000", "133803.185000", "133805.185000", "133807.185000", "133809.185000", "133811.185000", "133813.185000", "133815.185000", "133817.185000", "133819.185000", "133821.185000", "133823.185000", "133825.185000", "133827.185000", "133829.185000", "133831.185000", "133833.185000", "133835.185000", "133837.185000", "133839.185000", "133841.185000", "133843.185000", "133845.185000", "133847.185000", "133849.185000", "133851.185000", "133853.185000", "133855.185000", "133857.185000", "133859.185000", "133901.185000", "133903.185000", "133905.185000", "133907.185000", "133909.185000", "133911.185000", "133913.185000", "133915.185000", "133917.185000", "133919.185000", "133921.185000", "133923.185000", "133925.185000", "133927.185000", "133929.185000", "133931.185000", "133933.185000", "133935.185000", "133937.185000", "133939.185000", "133941.185000", "133943.185000", "133945.185000", "133947.185000", "133949.185000", "133951.185000", "133953.185000", "133955.185000", "133957.185000", "133959.185000", "134001.185000", "134003.185000", "134005.185000", "134007.185000", "134009.185000", "134011.185000", "134013.185000", "134015.185000", "134017.185000", "134019.185000", "134021.185000", "134023.185000", "134025.185000", "134027.185000", "134029.185000", "134031.185000", "134033.185000", "134035.185000", "134037.185000", "134039.185000", "134041.185000", "134043.185000", "134045.185000", "134047.185000", "134049.185000", "134051.185000", "134053.185000", "134055.185000", "134057.185000", "134059.185000", "134101.185000", "134103.185000", "134105.185000", "134107.185000", "134109.185000", "134111.185000", "134113.185000", "134115.185000", "134117.185000", "134119.185000", "134121.185000", "134123.185000", "134125.185000", "134127.185000", "134129.185000", "134131.185000", "134133.185000", "134135.185000", "134137.185000", "134139.185000", "134141.185000", "134143.185000", "134145.185000", "134147.185000", "134149.185000", "134151.185000", "134153.185000", "134155.185000", "134157.185000", "134159.185000", "134201.185000", "134203.185000", "134205.185000", "134207.185000", "134209.185000", "134211.185000", "134213.185000", "134215.185000", "134217.185000", "134219.185000", "134221.185000", "134223.185000", "134225.185000", "134227.185000", "134229.185000", "134231.185000", "134233.185000", "134235.185000", "134237.185000", "134239.185000", "134241.185000", "134243.185000", "134245.185000", "134247.185000", "134249.185000", "134251.185000", "134253.185000", "134255.185000", "134257.185000", "134259.185000", "134301.185000", "134303.185000", "134305.185000", "134307.185000", "134309.185000", "134311.185000", "134313.185000", "134315.185000", "134317.185000", "134319.185000", "134321.185000", "134323.185000", "134325.185000", "134327.185000", "134329.185000", "134331.185000", "134333.185000", "134335.185000", "134337.185000", "134339.185000", "134341.185000", "134343.185000", "134345.185000", "134347.185000", "134349.185000", "134351.185000", "134353.185000", "134355.185000", "134357.185000", "134359.185000", "134401.185000", "134403.185000", "134405.185000", "134407.185000", "134409.185000", "134411.185000", "134413.185000", "134415.185000", "134417.185000", "134419.185000", "134421.185000", "134423.185000", "134425.185000", "134427.185000", "134429.185000", "134431.185000", "134433.185000", "134435.185000", "134437.185000", "134439.185000", "134441.185000", "134443.185000", "134445.185000", "134447.185000", "134449.185000", "134451.185000", "134453.185000", "134455.185000", "134457.185000", "134459.185000", "134501.185000", "134503.185000", "134505.185000", "134507.185000", "134509.185000", "134511.185000", "134513.185000", "134515.185000", "134517.185000", "134519.185000", "134521.185000", "134523.185000", "134525.185000", "134527.185000", "134529.185000", "134531.185000", "134533.185000", "134535.185000", "134537.185000", "134539.185000", "134541.185000", "134543.185000", "134545.185000", "134547.185000", "134549.185000", "134551.185000", "134553.185000", "134555.185000", "134557.185000", "134559.185000", "134601.185000", "134603.185000", "134605.185000", "134607.185000", "134609.185000", "134611.185000", "134613.185000", "134615.185000", "134617.185000", "134619.185000", "134621.185000", "134623.185000", "134625.185000", "134627.185000", "134629.185000", "134631.185000", "134633.185000", "134635.185000", "134637.185000", "134639.185000", "134641.185000", "134643.185000", "134645.185000", "134647.185000", "134649.185000", "134651.185000", "134653.185000", "134655.185000", "134657.185000", "134659.185000", "134701.185000", "134703.185000", "134705.185000", "134707.185000", "134709.185000", "134711.185000", "134713.185000", "134715.185000", "134717.185000", "134719.185000", "134721.185000", "134723.185000", "134725.185000", "134727.185000", "134729.185000", "134731.185000", "134733.185000", "134735.185000", "134737.185000", "134739.185000", "134741.185000", "134743.185000", "134745.185000", "134747.185000", "134749.185000", "134751.185000", "134753.185000", "134755.185000", "134757.185000", "134759.185000", "134801.185000", "134803.185000", "134805.185000", "134807.185000", "134809.185000", "134811.185000", "134813.185000", "134815.185000", "134817.185000", "134819.185000", "134821.185000", "134823.185000", "134825.185000", "134827.185000", "134829.185000", "134831.185000", "134833.185000", "134835.185000", "134837.185000", "134839.185000", "134841.185000", "134843.185000", "134845.185000", "134847.185000", "134849.185000", "134851.185000", "134853.185000", "134855.185000", "134857.185000", "134859.185000", "134901.185000", "134903.185000", "134905.185000", "134907.185000", "134909.185000", "134911.185000", "134913.185000", "134915.185000", "134917.185000", "134919.185000", "134921.185000", "134923.185000", "134925.185000", "134927.185000", "134929.185000", "134931.185000", "134933.185000", "134935.185000", "134937.185000", "134939.185000", "134941.185000", "134943.185000", "134945.185000", "134947.185000", "134949.185000", "134951.185000", "134953.185000", "134955.185000", "134957.185000", "134959.185000", "135001.185000", "135003.185000", "135005.185000", "135007.185000", "135009.185000", "135011.185000", "135013.185000", "135015.185000", "135017.185000", "135019.185000", "135021.185000", "135023.185000", "135025.185000", "135027.185000", "135029.185000", "135031.185000", "135033.185000", "135035.185000", "135037.185000", "135039.185000", "135041.185000", "135043.185000", "135045.185000", "135047.185000", "135049.185000", "135051.185000", "135053.185000", "135055.185000", "135057.185000", "135059.185000", "135101.185000", "135103.185000", "135105.185000", "135107.185000", "135109.185000", "135111.185000", "135113.185000", "135115.185000", "135117.185000", "135119.185000", "135121.185000", "135123.185000", "135125.185000", "135127.185000", "135129.185000", "135131.185000", "135133.185000", "135135.185000", "135137.185000", "135139.185000", "135141.185000", "135143.185000", "135145.185000", "135147.185000", "135149.185000", "135151.185000", "135153.185000", "135155.185000", "135157.185000", "135159.185000", "135201.185000", "135203.185000", "135205.185000", "135207.185000", "135209.185000", "135211.185000", "135213.185000", "135215.185000", "135217.185000", "135219.185000", "135221.185000", "135223.185000", "135225.185000", "135227.185000", "135229.185000", "135231.185000", "135233.185000", "135235.185000", "135237.185000", "135239.185000", "135241.185000", "135243.185000", "135245.185000", "135247.185000", "135249.185000", "135251.185000", "135253.185000", "135255.185000", "135257.185000", "135259.185000", "135301.185000", "135303.185000", "135305.185000", "135307.185000", "135309.185000", "135311.185000", "135313.185000", "135315.185000", "135317.185000", "135319.185000", "135321.185000", "135323.185000", "135325.185000", "135327.185000", "135329.185000", "135331.185000", "135333.185000", "135335.185000", "135337.185000", "135339.185000", "135341.185000", "135343.185000", "135345.185000", "135347.185000", "135349.185000", "135351.185000", "135353.185000", "135355.185000", "135357.185000", "135359.185000", "135401.185000", "135403.185000", "135405.185000", "135407.185000", "135409.185000", "135411.185000", "135413.185000", "135415.185000", "135417.185000", "135419.185000", "135421.185000", "135423.185000", "135425.185000", "135427.185000", "135429.185000", "135431.185000", "135433.185000", "135435.185000", "135437.185000", "135439.185000", "135441.185000", "135443.185000", "135445.185000", "135447.185000", "135449.185000", "135451.185000", "135453.185000", "135455.185000", "135457.185000", "135459.185000", "135501.185000", "135503.185000", "135505.185000", "135507.185000", "135509.185000", "135511.185000", "135513.185000", "135515.185000", "135517.185000", "135519.185000", "135521.185000", "135523.185000", "135525.185000", "135527.185000", "135529.185000", "135531.185000", "135533.185000", "135535.185000", "135537.185000", "135539.185000", "135541.185000", "135543.185000", "135545.185000", "135547.185000", "135549.185000", "135551.185000", "135553.185000", "135555.185000", "135557.185000", "135559.185000", "135601.185000", "135603.185000", "135605.185000", "135607.185000", "135609.185000", "135611.185000", "135613.185000", "135615.185000", "135617.185000", "135619.185000", "135621.185000", "135623.185000", "135625.185000", "135627.185000", "135629.185000", "135631.185000", "135633.185000", "135635.185000", "135637.185000", "135639.185000", "135641.185000", "135643.185000", "135645.185000", "135647.185000", "135649.185000", "135651.185000", "135653.185000", "135655.185000", "135657.185000", "135659.185000", "135701.185000", "135703.185000", "135705.185000", "135707.185000", "135709.185000", "135711.185000", "135713.185000", "135715.185000", "135717.185000", "135719.185000", "135721.185000", "135723.185000", "135725.185000", "135727.185000", "135729.185000", "135731.185000", "135733.185000", "135735.185000", "135737.185000", "135739.185000", "135741.185000", "135743.185000", "135745.185000", "135747.185000", "135749.185000", "135751.185000", "135753.185000", "135755.185000", "135757.185000", "135759.185000", "135801.185000", "135803.185000", "135805.185000", "135807.185000", "135809.185000", "135811.185000", "135813.185000", "135815.185000", "135817.185000", "135819.185000", "135821.185000", "135823.185000", "135825.185000", "135827.185000", "135829.185000", "135831.185000", "135833.185000", "135835.185000", "135837.185000", "135839.185000", "135841.185000", "135843.185000", "135845.185000", "135847.185000", "135849.185000", "135851.185000", "135853.185000", "135855.185000", "135857.185000", "135859.185000", "135901.185000", "135903.185000", "135905.185000", "135907.185000", "135909.185000", "135911.185000", "135913.185000", "135915.185000", "135917.185000", "135919.185000", "135921.185000", "135923.185000", "135925.185000", "135927.185000", "135929.185000", "135931.185000", "135933.185000", "135935.185000", "135937.185000", "135939.185000", "135941.185000", "135943.185000", "135945.185000", "135947.185000", "135949.185000", "135951.185000", "135953.185000", "135955.185000", "135957.185000", "135959.185000", "140001.185000", "140003.185000", "140005.185000", "140007.185000", "140009.185000", "140011.185000", "140013.185000", "140015.185000", "140017.185000", "140019.185000", "140021.185000", "140023.185000", "140025.185000", "140027.185000", "140029.185000", "140031.185000", "140033.185000", "140035.185000", "140037.185000", "140039.185000", "140041.185000", "140043.185000", "140045.185000", "140047.185000", "140049.185000", "140051.185000", "140053.185000", "140055.185000", "140057.185000", "140059.185000", "140101.185000", "140103.185000", "140105.185000", "140107.185000", "140109.185000", "140111.185000", "140113.185000", "140115.185000", "140117.185000", "140119.185000", "140121.185000", "140123.185000", "140125.185000", "140127.185000", "140129.185000", "140131.185000", "140133.185000", "140135.185000", "140137.185000", "140139.185000", "140141.185000", "140143.185000", "140145.185000", "140147.185000", "140149.185000", "140151.185000", "140153.185000", "140155.185000", "140157.185000", "140159.185000", "140201.185000", "140203.185000", "140205.185000", "140207.185000", "140209.185000", "140211.185000", "140213.185000", "140215.185000", "140217.185000", "140219.185000", "140221.185000", "140223.185000", "140225.185000", "140227.185000", "140229.185000", "140231.185000", "140233.185000", "140235.185000", "140237.185000", "140239.185000", "140241.185000", "140243.185000", "140245.185000", "140247.185000", "140249.185000", "140251.185000", "140253.185000", "140255.185000", "140257.185000", "140259.185000", "140301.185000", "140303.185000", "140305.185000", "140307.185000", "140309.185000", "140311.185000", "140313.185000", "140315.185000", "140317.185000", "140319.185000", "140321.185000", "140323.185000", "140325.185000", "140327.185000", "140329.185000", "140331.185000", "140333.185000", "140335.185000", "140337.185000", "140339.185000", "140341.185000", "140343.185000", "140345.185000", "140347.185000", "140349.185000", "140351.185000", "140353.185000", "140355.185000", "140357.185000", "140359.185000", "140401.185000", "140403.185000", "140405.185000", "140407.185000", "140409.185000", "140411.185000", "140413.185000", "140415.185000", "140417.185000", "140419.185000", "140421.185000", "140423.185000", "140425.185000", "140427.185000", "140429.185000", "140431.185000", "140433.185000", "140435.185000", "140437.185000", "140439.185000", "140441.185000", "140443.185000", "140445.185000", "140447.185000", "140449.185000", "140451.185000", "140453.185000", "140455.185000", "140457.185000", "140459.185000", "140501.185000", "140503.185000", "140505.185000", "140507.185000", "140509.185000", "140511.185000", "140513.185000", "140515.185000", "140517.185000", "140519.185000", "140521.185000", "140523.185000", "140525.185000", "140527.185000", "140529.185000", "140531.185000", "140533.185000", "140535.185000", "140537.185000", "140539.185000", "140541.185000", "140543.185000", "140545.185000", "140547.185000", "140549.185000", "140551.185000", "140553.185000", "140555.185000", "140557.185000", "140559.185000", "140601.185000", "140603.185000", "140605.185000", "140607.185000", "140609.185000", "140611.185000", "140613.185000", "140615.185000", "140617.185000", "140619.185000", "140621.185000", "140623.185000", "140625.185000", "140627.185000", "140629.185000", "140631.185000", "140633.185000", "140635.185000", "140637.185000", "140639.185000", "140641.185000", "140643.185000", "140645.185000", "140647.185000", "140649.185000", "140651.185000", "140653.185000", "140655.185000", "140657.185000", "140659.185000", "140701.185000", "140703.185000", "140705.185000", "140707.185000", "140709.185000", "140711.185000", "140713.185000", "140715.185000", "140717.185000", "140719.185000", "140721.185000", "140723.185000", "140725.185000", "140727.185000", "140729.185000", "140731.185000", "140733.185000", "140735.185000", "140737.185000", "140739.185000", "140741.185000", "140743.185000", "140745.185000", "140747.185000", "140749.185000", "140751.185000", "140753.185000", "140755.185000", "140757.185000", "140759.185000", "140801.185000", "140803.185000", "140805.185000", "140807.185000", "140809.185000", "140811.185000", "140813.185000", "140815.185000", "140817.185000", "140819.185000", "140821.185000", "140823.185000", "140825.185000", "140827.185000", "140829.185000", "140831.185000", "140833.185000", "140835.185000", "140837.185000", "140839.185000", "140841.185000", "140843.185000", "140845.185000", "140847.185000", "140849.185000", "140851.185000", "140853.185000", "140855.185000", "140857.185000", "140859.185000", "140901.185000", "140903.185000", "140905.185000", "140907.185000", "140909.185000", "140911.185000", "140913.185000", "140915.185000", "140917.185000", "140919.185000", "140921.185000", "140923.185000", "140925.185000", "140927.185000", "140929.185000", "140931.185000", "140933.185000", "140935.185000", "140937.185000", "140939.185000", "140941.185000", "140943.185000", "140945.185000", "140947.1850