{
  "AcquisitionMatrixPE": 80,
  "AcquisitionNumber": 1,
  "AcquisitionTime": "11:39:6.110000",
  "BandwidthPerPixelPhaseEncode": 51.02,
  "BaseResolution": 80,
  "BodyPartExamined": "BRAIN",
  "ConsistencyInfo": "N4_VE11C_LATEST_20160120",
  "ConversionSoftware": "dcm2niix",
  "ConversionSoftwareVersion": "v1.0.20170923 (OpenJPEG build) GCC6.3.0",
  "DerivedVendorReportedEchoSpacing": 0.000490004,
  "DeviceSerialNumber": "66112",
  "DwellTime": 2.2e-06,
  "EchoTime": 0.025,
  "EchoTrainLength": 39,
  "EffectiveEchoSpacing": 0.000245002,
  "FlipAngle": 75,
  "ImageType": [
    "ORIGINAL",
    "PRIMARY",
    "FMRI",
    "NONE",
    "ND",
    "NORM",
    "MOSAIC"
],
  "InstitutionAddress": "Maynard_3_Hanover_NH_US_03755",
  "InstitutionName": "Dartmouth_College_-_PBS",
  "MagneticFieldStrength": 3,
  "Manufacturer": "Siemens",
  "ManufacturersModelName": "Prisma",
  "Modality": "MR",
  "ParallelReductionFactorInPlane": 2,
  "PartialFourier": 1,
  "PercentPhaseFOV": 100,
  "PhaseEncodingDirection": "j-",
  "PhaseEncodingSteps": 79,
  "PhaseResolution": 1,
  "ProcedureStepDescription": "Chang_Chang_1039_fnlpilot",
  "ProtocolName": "func_run-01_task-movie",
  "PulseSequenceDetails": "%SiemensSeq%_ep2d_bold",
  "ReceiveCoilActiveElements": "HEA;HEP",
  "ReceiveCoilName": "Head_32",
  "ReconMatrixPE": 80,
  "RepetitionTime": 2,
  "ScanOptions": "FS",
  "ScanningSequence": "EP",
  "SequenceName": "_epfid2d1_80",
  "SequenceVariant": "SK",
  "SeriesDescription": "func_run-01_task-movie",
  "SliceTiming": [0.99, 0, 1.04, 0.05, 1.09, 0.1, 1.14, 0.15, 1.1875, 0.1975, 1.2375, 0.2475, 1.2875, 0.2975, 1.3375, 0.3475, 1.3875, 0.3975, 1.435, 0.445, 1.485, 0.495, 1.535, 0.545, 1.585, 0.595, 1.635, 0.645, 1.6825, 0.6925, 1.7325, 0.7425, 1.7825, 0.7925, 1.8325, 0.8425, 1.88, 0.8925, 1.93, 0.94],
  "SoftwareVersions": "syngo_MR_E11",
  "StationName": "AWP66112",
  "TaskName": "movie",
  "TotalReadoutTime": 0.0193552,
  "dcmmeta_affine": [
    [-2.9876317977905273, -0.2713698148727417, -0.02036220394074917, 136.9947509765625],
    [-0.2720870077610016, 2.9746437072753906, 0.27832141518592834, -91.9637680053711],
    [0.004985910840332508, -0.2790207266807556, 2.986992359161377, -32.88189697265625],
    [0.0, 0.0, 0.0, 1.0]
],
  "dcmmeta_reorient_transform": [
    [0.0, -1.0, 0.0, 79.0],
    [1.0, 0.0, 0.0, 0.0],
    [0.0, 0.0, 1.0, 0.0],
    [0.0, 0.0, 0.0, 1.0]
],
  "dcmmeta_shape": [80, 80, 40, 1369],
  "dcmmeta_slice_dim": 2,
  "dcmmeta_version": 0.6,
  "global": {
    "const": {
      "AccessionNumber": "A001066",
      "AcquisitionMatrix": [80, 0, 0, 80],
      "AngioFlag": "N",
      "BitsAllocated": 16,
      "BitsStored": 12,
      "BodyPartExamined": "BRAIN",
      "Columns": 560,
      "EchoNumbers": 1,
      "EchoTime": 25.0,
      "EchoTrainLength": 39,
      "FlipAngle": 75.0,
      "HighBit": 11,
      "ImageOrientationPatient": [0.99587726813956, 0.09069567055701, 0.00166197024922, -0.0904566083363, 0.99154793966413, 0.09300691026008],
      "ImagePositionPatient": [-767.45941731461, -922.2484967215, -123.08612964734],
      "ImageType": [
        "ORIGINAL",
        "PRIMARY",
        "FMRI",
        "NONE",
        "ND",
        "NORM",
        "MOSAIC"
],
      "ImagedNucleus": "1H",
      "ImagingFrequency": 123.252272,
      "InPlanePhaseEncodingDirection": "COL",
      "MRAcquisitionType": "2D",
      "MagneticFieldStrength": 3.0,
      "Manufacturer": "SIEMENS",
      "ManufacturerModelName": "Prisma",
      "Modality": "MR",
      "NumberOfAverages": 1.0,
      "NumberOfPhaseEncodingSteps": 79,
      "PercentPhaseFieldOfView": 100.0,
      "PercentSampling": 100.0,
      "PerformedProcedureStepStartTime": "111622.071000",
      "PhotometricInterpretation": "MONOCHROME2",
      "PixelBandwidth": 2840.0,
      "PixelRepresentation": 0,
      "PixelSpacing": [3.0, 3.0],
      "PositionReferenceIndicator": "",
      "ProtocolName": "func_run-01_task-movie",
      "RepetitionTime": 2000.0,
      "Rows": 560,
      "SAR": 0.11033426604,
      "SamplesPerPixel": 1,
      "ScanOptions": "FS",
      "ScanningSequence": "EP",
      "SequenceName": "*epfid2d1_80",
      "SequenceVariant": "SK",
      "SeriesDescription": "func_run-01_task-movie",
      "SeriesNumber": 12,
      "SeriesTime": "113907.420000",
      "SliceLocation": -42.200991130321,
      "SliceThickness": 3.0,
      "SmallestImagePixelValue": 0,
      "SoftwareVersions": "syngo MR E11",
      "SpacingBetweenSlices": 3.0000000473863,
      "SpecificCharacterSet": "ISO_IR 100",
      "StudyID": "1",
      "StudyTime": "111622.008000",
      "TransmitCoilName": "Body",
      "VariableFlipAngleFlag": "N",
      "WindowCenterWidthExplanation": "Algo1",
      "dBdt": 0.0},
    "slices": {}
  },
  "time": {
    "samples": {
      "AcquisitionNumber": [1, 2, 3, 4, 5, 6, 7, 8, 9, 10, 11, 12, 13, 14, 15, 16, 17, 18, 19, 20, 21, 22, 23, 24, 25, 26, 27, 28, 29, 30, 31, 32, 33, 34, 35, 36, 37, 38, 39, 40, 41, 42, 43, 44, 45, 46, 47, 48, 49, 50, 51, 52, 53, 54, 55, 56, 57, 58, 59, 60, 61, 62, 63, 64, 65, 66, 67, 68, 69, 70, 71, 72, 73, 74, 75, 76, 77, 78, 79, 80, 81, 82, 83, 84, 85, 86, 87, 88, 89, 90, 91, 92, 93, 94, 95, 96, 97, 98, 99, 100, 101, 102, 103, 104, 105, 106, 107, 108, 109, 110, 111, 112, 113, 114, 115, 116, 117, 118, 119, 120, 121, 122, 123, 124, 125, 126, 127, 128, 129, 130, 131, 132, 133, 134, 135, 136, 137, 138, 139, 140, 141, 142, 143, 144, 145, 146, 147, 148, 149, 150, 151, 152, 153, 154, 155, 156, 157, 158, 159, 160, 161, 162, 163, 164, 165, 166, 167, 168, 169, 170, 171, 172, 173, 174, 175, 176, 177, 178, 179, 180, 181, 182, 183, 184, 185, 186, 187, 188, 189, 190, 191, 192, 193, 194, 195, 196, 197, 198, 199, 200, 201, 202, 203, 204, 205, 206, 207, 208, 209, 210, 211, 212, 213, 214, 215, 216, 217, 218, 219, 220, 221, 222, 223, 224, 225, 226, 227, 228, 229, 230, 231, 232, 233, 234, 235, 236, 237, 238, 239, 240, 241, 242, 243, 244, 245, 246, 247, 248, 249, 250, 251, 252, 253, 254, 255, 256, 257, 258, 259, 260, 261, 262, 263, 264, 265, 266, 267, 268, 269, 270, 271, 272, 273, 274, 275, 276, 277, 278, 279, 280, 281, 282, 283, 284, 285, 286, 287, 288, 289, 290, 291, 292, 293, 294, 295, 296, 297, 298, 299, 300, 301, 302, 303, 304, 305, 306, 307, 308, 309, 310, 311, 312, 313, 314, 315, 316, 317, 318, 319, 320, 321, 322, 323, 324, 325, 326, 327, 328, 329, 330, 331, 332, 333, 334, 335, 336, 337, 338, 339, 340, 341, 342, 343, 344, 345, 346, 347, 348, 349, 350, 351, 352, 353, 354, 355, 356, 357, 358, 359, 360, 361, 362, 363, 364, 365, 366, 367, 368, 369, 370, 371, 372, 373, 374, 375, 376, 377, 378, 379, 380, 381, 382, 383, 384, 385, 386, 387, 388, 389, 390, 391, 392, 393, 394, 395, 396, 397, 398, 399, 400, 401, 402, 403, 404, 405, 406, 407, 408, 409, 410, 411, 412, 413, 414, 415, 416, 417, 418, 419, 420, 421, 422, 423, 424, 425, 426, 427, 428, 429, 430, 431, 432, 433, 434, 435, 436, 437, 438, 439, 440, 441, 442, 443, 444, 445, 446, 447, 448, 449, 450, 451, 452, 453, 454, 455, 456, 457, 458, 459, 460, 461, 462, 463, 464, 465, 466, 467, 468, 469, 470, 471, 472, 473, 474, 475, 476, 477, 478, 479, 480, 481, 482, 483, 484, 485, 486, 487, 488, 489, 490, 491, 492, 493, 494, 495, 496, 497, 498, 499, 500, 501, 502, 503, 504, 505, 506, 507, 508, 509, 510, 511, 512, 513, 514, 515, 516, 517, 518, 519, 520, 521, 522, 523, 524, 525, 526, 527, 528, 529, 530, 531, 532, 533, 534, 535, 536, 537, 538, 539, 540, 541, 542, 543, 544, 545, 546, 547, 548, 549, 550, 551, 552, 553, 554, 555, 556, 557, 558, 559, 560, 561, 562, 563, 564, 565, 566, 567, 568, 569, 570, 571, 572, 573, 574, 575, 576, 577, 578, 579, 580, 581, 582, 583, 584, 585, 586, 587, 588, 589, 590, 591, 592, 593, 594, 595, 596, 597, 598, 599, 600, 601, 602, 603, 604, 605, 606, 607, 608, 609, 610, 611, 612, 613, 614, 615, 616, 617, 618, 619, 620, 621, 622, 623, 624, 625, 626, 627, 628, 629, 630, 631, 632, 633, 634, 635, 636, 637, 638, 639, 640, 641, 642, 643, 644, 645, 646, 647, 648, 649, 650, 651, 652, 653, 654, 655, 656, 657, 658, 659, 660, 661, 662, 663, 664, 665, 666, 667, 668, 669, 670, 671, 672, 673, 674, 675, 676, 677, 678, 679, 680, 681, 682, 683, 684, 685, 686, 687, 688, 689, 690, 691, 692, 693, 694, 695, 696, 697, 698, 699, 700, 701, 702, 703, 704, 705, 706, 707, 708, 709, 710, 711, 712, 713, 714, 715, 716, 717, 718, 719, 720, 721, 722, 723, 724, 725, 726, 727, 728, 729, 730, 731, 732, 733, 734, 735, 736, 737, 738, 739, 740, 741, 742, 743, 744, 745, 746, 747, 748, 749, 750, 751, 752, 753, 754, 755, 756, 757, 758, 759, 760, 761, 762, 763, 764, 765, 766, 767, 768, 769, 770, 771, 772, 773, 774, 775, 776, 777, 778, 779, 780, 781, 782, 783, 784, 785, 786, 787, 788, 789, 790, 791, 792, 793, 794, 795, 796, 797, 798, 799, 800, 801, 802, 803, 804, 805, 806, 807, 808, 809, 810, 811, 812, 813, 814, 815, 816, 817, 818, 819, 820, 821, 822, 823, 824, 825, 826, 827, 828, 829, 830, 831, 832, 833, 834, 835, 836, 837, 838, 839, 840, 841, 842, 843, 844, 845, 846, 847, 848, 849, 850, 851, 852, 853, 854, 855, 856, 857, 858, 859, 860, 861, 862, 863, 864, 865, 866, 867, 868, 869, 870, 871, 872, 873, 874, 875, 876, 877, 878, 879, 880, 881, 882, 883, 884, 885, 886, 887, 888, 889, 890, 891, 892, 893, 894, 895, 896, 897, 898, 899, 900, 901, 902, 903, 904, 905, 906, 907, 908, 909, 910, 911, 912, 913, 914, 915, 916, 917, 918, 919, 920, 921, 922, 923, 924, 925, 926, 927, 928, 929, 930, 931, 932, 933, 934, 935, 936, 937, 938, 939, 940, 941, 942, 943, 944, 945, 946, 947, 948, 949, 950, 951, 952, 953, 954, 955, 956, 957, 958, 959, 960, 961, 962, 963, 964, 965, 966, 967, 968, 969, 970, 971, 972, 973, 974, 975, 976, 977, 978, 979, 980, 981, 982, 983, 984, 985, 986, 987, 988, 989, 990, 991, 992, 993, 994, 995, 996, 997, 998, 999, 1000, 1001, 1002, 1003, 1004, 1005, 1006, 1007, 1008, 1009, 1010, 1011, 1012, 1013, 1014, 1015, 1016, 1017, 1018, 1019, 1020, 1021, 1022, 1023, 1024, 1025, 1026, 1027, 1028, 1029, 1030, 1031, 1032, 1033, 1034, 1035, 1036, 1037, 1038, 1039, 1040, 1041, 1042, 1043, 1044, 1045, 1046, 1047, 1048, 1049, 1050, 1051, 1052, 1053, 1054, 1055, 1056, 1057, 1058, 1059, 1060, 1061, 1062, 1063, 1064, 1065, 1066, 1067, 1068, 1069, 1070, 1071, 1072, 1073, 1074, 1075, 1076, 1077, 1078, 1079, 1080, 1081, 1082, 1083, 1084, 1085, 1086, 1087, 1088, 1089, 1090, 1091, 1092, 1093, 1094, 1095, 1096, 1097, 1098, 1099, 1100, 1101, 1102, 1103, 1104, 1105, 1106, 1107, 1108, 1109, 1110, 1111, 1112, 1113, 1114, 1115, 1116, 1117, 1118, 1119, 1120, 1121, 1122, 1123, 1124, 1125, 1126, 1127, 1128, 1129, 1130, 1131, 1132, 1133, 1134, 1135, 1136, 1137, 1138, 1139, 1140, 1141, 1142, 1143, 1144, 1145, 1146, 1147, 1148, 1149, 1150, 1151, 1152, 1153, 1154, 1155, 1156, 1157, 1158, 1159, 1160, 1161, 1162, 1163, 1164, 1165, 1166, 1167, 1168, 1169, 1170, 1171, 1172, 1173, 1174, 1175, 1176, 1177, 1178, 1179, 1180, 1181, 1182, 1183, 1184, 1185, 1186, 1187, 1188, 1189, 1190, 1191, 1192, 1193, 1194, 1195, 1196, 1197, 1198, 1199, 1200, 1201, 1202, 1203, 1204, 1205, 1206, 1207, 1208, 1209, 1210, 1211, 1212, 1213, 1214, 1215, 1216, 1217, 1218, 1219, 1220, 1221, 1222, 1223, 1224, 1225, 1226, 1227, 1228, 1229, 1230, 1231, 1232, 1233, 1234, 1235, 1236, 1237, 1238, 1239, 1240, 1241, 1242, 1243, 1244, 1245, 1246, 1247, 1248, 1249, 1250, 1251, 1252, 1253, 1254, 1255, 1256, 1257, 1258, 1259, 1260, 1261, 1262, 1263, 1264, 1265, 1266, 1267, 1268, 1269, 1270, 1271, 1272, 1273, 1274, 1275, 1276, 1277, 1278, 1279, 1280, 1281, 1282, 1283, 1284, 1285, 1286, 1287, 1288, 1289, 1290, 1291, 1292, 1293, 1294, 1295, 1296, 1297, 1298, 1299, 1300, 1301, 1302, 1303, 1304, 1305, 1306, 1307, 1308, 1309, 1310, 1311, 1312, 1313, 1314, 1315, 1316, 1317, 1318, 1319, 1320, 1321, 1322, 1323, 1324, 1325, 1326, 1327, 1328, 1329, 1330, 1331, 1332, 1333, 1334, 1335, 1336, 1337, 1338, 1339, 1340, 1341, 1342, 1343, 1344, 1345, 1346, 1347, 1348, 1349, 1350, 1351, 1352, 1353, 1354, 1355, 1356, 1357, 1358, 1359, 1360, 1361, 1362, 1363, 1364, 1365, 1366, 1367, 1368, 1369],
      "AcquisitionTime": ["113906.110000", "113908.110000", "113910.110000", "113912.110000", "113914.110000", "113916.110000", "113918.110000", "113920.110000", "113922.110000", "113924.110000", "113926.110000", "113928.110000", "113930.110000", "113932.110000", "113934.110000", "113936.110000", "113938.110000", "113940.110000", "113942.110000", "113944.110000", "113946.110000", "113948.110000", "113950.110000", "113952.110000", "113954.110000", "113956.110000", "113958.110000", "114000.110000", "114002.110000", "114004.110000", "114006.110000", "114008.110000", "114010.110000", "114012.110000", "114014.110000", "114016.110000", "114018.110000", "114020.110000", "114022.110000", "114024.110000", "114026.110000", "114028.110000", "114030.110000", "114032.110000", "114034.110000", "114036.110000", "114038.110000", "114040.110000", "114042.110000", "114044.110000", "114046.110000", "114048.110000", "114050.110000", "114052.110000", "114054.110000", "114056.110000", "114058.110000", "114100.110000", "114102.110000", "114104.110000", "114106.110000", "114108.110000", "114110.110000", "114112.110000", "114114.110000", "114116.110000", "114118.110000", "114120.110000", "114122.110000", "114124.110000", "114126.110000", "114128.110000", "114130.110000", "114132.110000", "114134.110000", "114136.110000", "114138.110000", "114140.110000", "114142.110000", "114144.110000", "114146.110000", "114148.110000", "114150.110000", "114152.110000", "114154.110000", "114156.110000", "114158.110000", "114200.110000", "114202.110000", "114204.110000", "114206.110000", "114208.110000", "114210.110000", "114212.110000", "114214.110000", "114216.110000", "114218.110000", "114220.110000", "114222.110000", "114224.110000", "114226.110000", "114228.110000", "114230.110000", "114232.110000", "114234.110000", "114236.110000", "114238.110000", "114240.110000", "114242.110000", "114244.110000", "114246.110000", "114248.110000", "114250.110000", "114252.110000", "114254.110000", "114256.110000", "114258.110000", "114300.110000", "114302.110000", "114304.110000", "114306.110000", "114308.110000", "114310.110000", "114312.110000", "114314.110000", "114316.110000", "114318.110000", "114320.110000", "114322.110000", "114324.110000", "114326.110000", "114328.110000", "114330.110000", "114332.110000", "114334.110000", "114336.110000", "114338.110000", "114340.110000", "114342.110000", "114344.110000", "114346.110000", "114348.110000", "114350.110000", "114352.110000", "114354.110000", "114356.110000", "114358.110000", "114400.110000", "114402.110000", "114404.110000", "114406.110000", "114408.110000", "114410.110000", "114412.110000", "114414.110000", "114416.110000", "114418.110000", "114420.110000", "114422.110000", "114424.110000", "114426.110000", "114428.110000", "114430.110000", "114432.110000", "114434.110000", "114436.110000", "114438.110000", "114440.110000", "114442.110000", "114444.110000", "114446.110000", "114448.110000", "114450.110000", "114452.110000", "114454.110000", "114456.110000", "114458.110000", "114500.110000", "114502.110000", "114504.110000", "114506.110000", "114508.110000", "114510.110000", "114512.110000", "114514.110000", "114516.110000", "114518.110000", "114520.110000", "114522.110000", "114524.110000", "114526.110000", "114528.110000", "114530.110000", "114532.110000", "114534.110000", "114536.110000", "114538.110000", "114540.110000", "114542.110000", "114544.110000", "114546.110000", "114548.110000", "114550.110000", "114552.110000", "114554.110000", "114556.110000", "114558.110000", "114600.110000", "114602.110000", "114604.110000", "114606.110000", "114608.110000", "114610.110000", "114612.110000", "114614.110000", "114616.110000", "114618.110000", "114620.110000", "114622.110000", "114624.110000", "114626.110000", "114628.110000", "114630.110000", "114632.110000", "114634.110000", "114636.110000", "114638.110000", "114640.110000", "114642.110000", "114644.110000", "114646.110000", "114648.110000", "114650.110000", "114652.110000", "114654.110000", "114656.110000", "114658.110000", "114700.110000", "114702.110000", "114704.110000", "114706.110000", "114708.110000", "114710.110000", "114712.110000", "114714.110000", "114716.110000", "114718.110000", "114720.110000", "114722.110000", "114724.110000", "114726.110000", "114728.110000", "114730.110000", "114732.110000", "114734.110000", "114736.110000", "114738.110000", "114740.110000", "114742.110000", "114744.110000", "114746.110000", "114748.110000", "114750.110000", "114752.110000", "114754.110000", "114756.110000", "114758.110000", "114800.110000", "114802.110000", "114804.110000", "114806.110000", "114808.110000", "114810.110000", "114812.110000", "114814.110000", "114816.110000", "114818.110000", "114820.110000", "114822.110000", "114824.110000", "114826.110000", "114828.110000", "114830.110000", "114832.110000", "114834.110000", "114836.110000", "114838.110000", "114840.110000", "114842.110000", "114844.110000", "114846.110000", "114848.110000", "114850.110000", "114852.110000", "114854.110000", "114856.110000", "114858.110000", "114900.110000", "114902.110000", "114904.110000", "114906.110000", "114908.110000", "114910.110000", "114912.110000", "114914.110000", "114916.110000", "114918.110000", "114920.110000", "114922.110000", "114924.110000", "114926.110000", "114928.110000", "114930.110000", "114932.110000", "114934.110000", "114936.110000", "114938.110000", "114940.110000", "114942.110000", "114944.110000", "114946.110000", "114948.110000", "114950.110000", "114952.110000", "114954.110000", "114956.110000", "114958.110000", "115000.110000", "115002.110000", "115004.110000", "115006.110000", "115008.110000", "115010.110000", "115012.110000", "115014.110000", "115016.110000", "115018.110000", "115020.110000", "115022.110000", "115024.110000", "115026.110000", "115028.110000", "115030.110000", "115032.110000", "115034.110000", "115036.110000", "115038.110000", "115040.110000", "115042.110000", "115044.110000", "115046.110000", "115048.110000", "115050.110000", "115052.110000", "115054.110000", "115056.110000", "115058.110000", "115100.110000", "115102.110000", "115104.110000", "115106.110000", "115108.110000", "115110.110000", "115112.110000", "115114.110000", "115116.110000", "115118.110000", "115120.110000", "115122.110000", "115124.110000", "115126.110000", "115128.110000", "115130.110000", "115132.110000", "115134.110000", "115136.110000", "115138.110000", "115140.110000", "115142.110000", "115144.110000", "115146.110000", "115148.110000", "115150.110000", "115152.110000", "115154.110000", "115156.110000", "115158.110000", "115200.110000", "115202.110000", "115204.110000", "115206.110000", "115208.110000", "115210.110000", "115212.110000", "115214.110000", "115216.110000", "115218.110000", "115220.110000", "115222.110000", "115224.110000", "115226.110000", "115228.110000", "115230.110000", "115232.110000", "115234.110000", "115236.110000", "115238.110000", "115240.110000", "115242.110000", "115244.110000", "115246.110000", "115248.110000", "115250.110000", "115252.110000", "115254.110000", "115256.110000", "115258.110000", "115300.110000", "115302.110000", "115304.110000", "115306.110000", "115308.110000", "115310.110000", "115312.110000", "115314.110000", "115316.110000", "115318.110000", "115320.110000", "115322.110000", "115324.110000", "115326.110000", "115328.110000", "115330.110000", "115332.110000", "115334.110000", "115336.110000", "115338.110000", "115340.110000", "115342.110000", "115344.110000", "115346.110000", "115348.110000", "115350.110000", "115352.110000", "115354.110000", "115356.110000", "115358.110000", "115400.110000", "115402.110000", "115404.110000", "115406.110000", "115408.110000", "115410.110000", "115412.110000", "115414.110000", "115416.110000", "115418.110000", "115420.110000", "115422.110000", "115424.110000", "115426.110000", "115428.110000", "115430.110000", "115432.110000", "115434.110000", "115436.110000", "115438.110000", "115440.110000", "115442.110000", "115444.110000", "115446.110000", "115448.110000", "115450.110000", "115452.110000", "115454.110000", "115456.110000", "115458.110000", "115500.110000", "115502.110000", "115504.110000", "115506.110000", "115508.110000", "115510.110000", "115512.110000", "115514.110000", "115516.110000", "115518.110000", "115520.110000", "115522.110000", "115524.110000", "115526.110000", "115528.110000", "115530.110000", "115532.110000", "115534.110000", "115536.110000", "115538.110000", "115540.110000", "115542.110000", "115544.110000", "115546.110000", "115548.110000", "115550.110000", "115552.110000", "115554.110000", "115556.110000", "115558.110000", "115600.110000", "115602.110000", "115604.110000", "115606.110000", "115608.110000", "115610.110000", "115612.110000", "115614.110000", "115616.110000", "115618.110000", "115620.110000", "115622.110000", "115624.110000", "115626.110000", "115628.110000", "115630.110000", "115632.110000", "115634.110000", "115636.110000", "115638.110000", "115640.110000", "115642.110000", "115644.110000", "115646.110000", "115648.110000", "115650.110000", "115652.110000", "115654.110000", "115656.110000", "115658.110000", "115700.110000", "115702.110000", "115704.110000", "115706.110000", "115708.110000", "115710.110000", "115712.110000", "115714.110000", "115716.110000", "115718.110000", "115720.110000", "115722.110000", "115724.110000", "115726.110000", "115728.110000", "115730.110000", "115732.110000", "115734.110000", "115736.110000", "115738.110000", "115740.110000", "115742.110000", "115744.110000", "115746.110000", "115748.110000", "115750.110000", "115752.110000", "115754.110000", "115756.110000", "115758.110000", "115800.110000", "115802.110000", "115804.110000", "115806.110000", "115808.110000", "115810.110000", "115812.110000", "115814.110000", "115816.110000", "115818.110000", "115820.110000", "115822.110000", "115824.110000", "115826.110000", "115828.110000", "115830.110000", "115832.110000", "115834.110000", "115836.110000", "115838.110000", "115840.110000", "115842.110000", "115844.110000", "115846.110000", "115848.110000", "115850.110000", "115852.110000", "115854.110000", "115856.110000", "115858.110000", "115900.110000", "115902.110000", "115904.110000", "115906.110000", "115908.110000", "115910.110000", "115912.110000", "115914.110000", "115916.110000", "115918.110000", "115920.110000", "115922.110000", "115924.110000", "115926.110000", "115928.110000", "115930.110000", "115932.110000", "115934.110000", "115936.110000", "115938.110000", "115940.110000", "115942.110000", "115944.110000", "115946.110000", "115948.110000", "115950.110000", "115952.110000", "115954.110000", "115956.110000", "115958.110000", "120000.110000", "120002.110000", "120004.110000", "120006.110000", "120008.110000", "120010.110000", "120012.110000", "120014.110000", "120016.110000", "120018.110000", "120020.110000", "120022.110000", "120024.110000", "120026.110000", "120028.110000", "120030.110000", "120032.110000", "120034.110000", "120036.110000", "120038.110000", "120040.110000", "120042.110000", "120044.110000", "120046.110000", "120048.110000", "120050.110000", "120052.110000", "120054.110000", "120056.110000", "120058.110000", "120100.110000", "120102.110000", "120104.110000", "120106.110000", "120108.110000", "120110.110000", "120112.110000", "120114.110000", "120116.110000", "120118.110000", "120120.110000", "120122.110000", "120124.110000", "120126.110000", "120128.110000", "120130.110000", "120132.110000", "120134.110000", "120136.110000", "120138.110000", "120140.110000", "120142.110000", "120144.110000", "120146.110000", "120148.110000", "120150.110000", "120152.110000", "120154.110000", "120156.110000", "120158.110000", "120200.110000", "120202.110000", "120204.110000", "120206.110000", "120208.110000", "120210.110000", "120212.110000", "120214.110000", "120216.110000", "120218.110000", "120220.110000", "120222.110000", "120224.110000", "120226.110000", "120228.110000", "120230.110000", "120232.110000", "120234.110000", "120236.110000", "120238.110000", "120240.110000", "120242.110000", "120244.110000", "120246.110000", "120248.110000", "120250.110000", "120252.110000", "120254.110000", "120256.110000", "120258.110000", "120300.110000", "120302.110000", "120304.110000", "120306.110000", "120308.110000", "120310.110000", "120312.110000", "120314.110000", "120316.110000", "120318.110000", "120320.110000", "120322.110000", "120324.110000", "120326.110000", "120328.110000", "120330.110000", "120332.110000", "120334.110000", "120336.110000", "120338.110000", "120340.110000", "120342.110000", "120344.110000", "120346.110000", "120348.110000", "120350.110000", "120352.110000", "120354.110000", "120356.110000", "120358.110000", "120400.110000", "120402.110000", "120404.110000", "120406.110000", "120408.110000", "120410.110000", "120412.110000", "120414.110000", "120416.110000", "120418.110000", "120420.110000", "120422.110000", "120424.110000", "120426.110000", "120428.110000", "120430.110000", "120432.110000", "120434.110000", "120436.110000", "120438.110000", "120440.110000", "120442.110000", "120444.110000", "120446.110000", "120448.110000", "120450.110000", "120452.110000", "120454.110000", "120456.110000", "120458.110000", "120500.110000", "120502.110000", "120504.110000", "120506.110000", "120508.110000", "120510.110000", "120512.110000", "120514.110000", "120516.110000", "120518.110000", "120520.110000", "120522.110000", "120524.110000", "120526.110000", "120528.110000", "120530.110000", "120532.110000", "120534.110000", "120536.110000", "120538.110000", "120540.110000", "120542.110000", "120544.110000", "120546.110000", "120548.110000", "120550.110000", "120552.110000", "120554.110000", "120556.110000", "120558.110000", "120600.110000", "120602.110000", "120604.110000", "120606.110000", "120608.110000", "120610.110000", "120612.110000", "120614.110000", "120616.110000", "120618.110000", "120620.110000", "120622.110000", "120624.110000", "120626.110000", "120628.110000", "120630.110000", "120632.110000", "120634.110000", "120636.110000", "120638.110000", "120640.110000", "120642.110000", "120644.110000", "120646.110000", "120648.110000", "120650.110000", "120652.110000", "120654.110000", "120656.110000", "120658.110000", "120700.110000", "120702.110000", "120704.110000", "120706.110000", "120708.110000", "120710.110000", "120712.110000", "120714.110000", "120716.110000", "120718.110000", "120720.110000", "120722.110000", "120724.110000", "120726.110000", "120728.110000", "120730.110000", "120732.110000", "120734.110000", "120736.110000", "120738.110000", "120740.110000", "120742.110000", "120744.110000", "120746.110000", "120748.110000", "120750.110000", "120752.110000", "120754.110000", "120756.110000", "120758.110000", "120800.110000", "120802.110000", "120804.110000", "120806.110000", "120808.110000", "120810.110000", "120812.110000", "120814.110000", "120816.110000", "120818.110000", "120820.110000", "120822.110000", "120824.110000", "120826.110000", "120828.110000", "120830.110000", "120832.110000", "120834.110000", "120836.110000", "120838.110000", "120840.110000", "120842.110000", "120844.110000", "120846.110000", "120848.110000", "120850.110000", "120852.110000", "120854.110000", "120856.110000", "120858.110000", "120900.110000", "120902.110000", "120904.110000", "120906.110000", "120908.110000", "120910.110000", "120912.110000", "120914.110000", "120916.110000", "120918.110000", "120920.110000", "120922.110000", "120924.110000", "120926.110000", "120928.110000", "120930.110000", "120932.110000", "120934.110000", "120936.110000", "120938.110000", "120940.110000", "120942.110000", "120944.110000", "120946.110000", "120948.110000", "120950.110000", "120952.110000", "120954.110000", "120956.110000", "120958.110000", "121000.110000", "121002.110000", "121004.110000", "121006.110000", "121008.110000", "121010.110000", "121012.110000", "121014.110000", "121016.110000", "121018.110000", "121020.110000", "121022.110000", "121024.110000", "121026.110000", "121028.110000", "121030.110000", "121032.110000", "121034.110000", "121036.110000", "121038.110000", "121040.110000", "121042.110000", "121044.110000", "121046.110000", "121048.110000", "121050.110000", "121052.110000", "121054.110000", "121056.110000", "121058.110000", "121100.110000", "121102.110000", "121104.110000", "121106.110000", "121108.110000", "121110.110000", "121112.110000", "121114.110000", "121116.110000", "121118.110000", "121120.110000", "121122.110000", "121124.110000", "121126.110000", "121128.110000", "121130.110000", "121132.110000", "121134.110000", "121136.110000", "121138.110000", "121140.110000", "121142.110000", "121144.110000", "121146.110000", "121148.110000", "121150.110000", "121152.110000", "121154.110000", "121156.110000", "121158.110000", "121200.110000", "121202.110000", "121204.110000", "121206.110000", "121208.110000", "121210.110000", "121212.110000", "121214.110000", "121216.110000", "121218.110000", "121220.110000", "121222.110000", "121224.110000", "121226.110000", "121228.110000", "121230.110000", "121232.110000", "121234.110000", "121236.110000", "121238.110000", "121240.110000", "121242.110000", "121244.110000", "121246.110000", "121248.110000", "121250.110000", "121252.110000", "121254.110000", "121256.110000", "121258.110000", "121300.110000", "121302.110000", "121304.110000", "121306.110000", "121308.110000", "121310.110000", "121312.110000", "121314.110000", "121316.110000", "121318.110000", "121320.110000", "121322.110000", "121324.110000", "121326.110000", "121328.110000", "121330.110000", "121332.110000", "121334.110000", "121336.110000", "121338.110000", "121340.110000", "121342.110000", "121344.110000", "121346.110000", "121348.110000", "121350.110000", "121352.110000", "121354.110000", "121356.110000", "121358.110000", "121400.110000", "121402.110000", "121404.110000", "121406.110000", "121408.110000", "121410.110000", "121412.110000", "121414.110000", "121416.110000", "121418.110000", "121420.110000", "121422.110000", "121424.110000", "121426.110000", "121428.110000", "121430.110000", "12