{
  "AcquisitionMatrixPE": 80,
  "AcquisitionNumber": 1,
  "AcquisitionTime": "21:20:25.260000",
  "BandwidthPerPixelPhaseEncode": 51.02,
  "BaseResolution": 80,
  "BodyPartExamined": "BRAIN",
  "ConsistencyInfo": "N4_VE11C_LATEST_20160120",
  "ConversionSoftware": "dcm2niix",
  "ConversionSoftwareVersion": "v1.0.20170923 (OpenJPEG build) GCC6.3.0",
  "DerivedVendorReportedEchoSpacing": 0.000490004,
  "DeviceSerialNumber": "66112",
  "DwellTime": 2.2e-06,
  "EchoTime": 0.025,
  "EchoTrainLength": 39,
  "EffectiveEchoSpacing": 0.000245002,
  "FlipAngle": 75,
  "ImageType": [
    "ORIGINAL",
    "PRIMARY",
    "FMRI",
    "NONE",
    "ND",
    "NORM",
    "MOSAIC"
],
  "InstitutionAddress": "Maynard_3_Hanover_NH_US_03755",
  "InstitutionName": "Dartmouth_College_-_PBS",
  "MagneticFieldStrength": 3,
  "Manufacturer": "Siemens",
  "ManufacturersModelName": "Prisma",
  "Modality": "MR",
  "ParallelReductionFactorInPlane": 2,
  "PartialFourier": 1,
  "PercentPhaseFOV": 100,
  "PhaseEncodingDirection": "j-",
  "PhaseEncodingSteps": 79,
  "PhaseResolution": 1,
  "ProcedureStepDescription": "Chang_Chang_1039_fnlpilot",
  "ProtocolName": "func_run-01_task-movie",
  "PulseSequenceDetails": "%SiemensSeq%_ep2d_bold",
  "ReceiveCoilActiveElements": "HEA;HEP",
  "ReceiveCoilName": "Head_32",
  "ReconMatrixPE": 80,
  "RepetitionTime": 2,
  "ScanOptions": "FS",
  "ScanningSequence": "EP",
  "SequenceName": "_epfid2d1_80",
  "SequenceVariant": "SK",
  "SeriesDescription": "func_run-01_task-movie",
  "SliceTiming": [0.99, 0, 1.04, 0.05, 1.0875, 0.0975, 1.1375, 0.1475, 1.1875, 0.1975, 1.2375, 0.2475, 1.2875, 0.2975, 1.335, 0.345, 1.385, 0.395, 1.435, 0.445, 1.485, 0.495, 1.5325, 0.545, 1.5825, 0.5925, 1.6325, 0.6425, 1.6825, 0.6925, 1.7325, 0.7425, 1.78, 0.7925, 1.83, 0.84, 1.88, 0.89, 1.93, 0.94],
  "SoftwareVersions": "syngo_MR_E11",
  "StationName": "AWP66112",
  "TaskName": "movie",
  "TotalReadoutTime": 0.0193552,
  "dcmmeta_affine": [
    [-2.9928488731384277, -0.11549660563468933, -0.17180168628692627, 126.32524871826172],
    [-0.12436719983816147, 2.9934561252593994, 0.15412075817584991, -98.10488891601562],
    [-0.1654934585094452, -0.16087554395198822, 2.9911086559295654, -35.46144485473633],
    [0.0, 0.0, 0.0, 1.0]
],
  "dcmmeta_reorient_transform": [
    [0.0, -1.0, 0.0, 79.0],
    [1.0, 0.0, 0.0, 0.0],
    [0.0, 0.0, 1.0, 0.0],
    [0.0, 0.0, 0.0, 1.0]
],
  "dcmmeta_shape": [80, 80, 40, 1369],
  "dcmmeta_slice_dim": 2,
  "dcmmeta_version": 0.6,
  "global": {
    "const": {
      "AccessionNumber": "A001118",
      "AcquisitionMatrix": [80, 0, 0, 80],
      "AngioFlag": "N",
      "BitsAllocated": 16,
      "BitsStored": 12,
      "BodyPartExamined": "BRAIN",
      "Columns": 560,
      "EchoNumbers": 1,
      "EchoTime": 25.0,
      "EchoTrainLength": 39,
      "FlipAngle": 75.0,
      "HighBit": 11,
      "ImageOrientationPatient": [0.9976163099141, 0.04145573239084, -0.0551644853625, -0.0384988693171, 0.9978187095548, 0.05362517994102],
      "ImagePositionPatient": [-807.76557058224, -886.65574291189, -47.062311052125],
      "ImageType": [
        "ORIGINAL",
        "PRIMARY",
        "FMRI",
        "NONE",
        "ND",
        "NORM",
        "MOSAIC"
],
      "ImagedNucleus": "1H",
      "ImagingFrequency": 123.252279,
      "InPlanePhaseEncodingDirection": "COL",
      "MRAcquisitionType": "2D",
      "MagneticFieldStrength": 3.0,
      "Manufacturer": "SIEMENS",
      "ManufacturerModelName": "Prisma",
      "Modality": "MR",
      "NumberOfAverages": 1.0,
      "NumberOfPhaseEncodingSteps": 79,
      "PercentPhaseFieldOfView": 100.0,
      "PercentSampling": 100.0,
      "PerformedProcedureStepStartTime": "210601.781000",
      "PhotometricInterpretation": "MONOCHROME2",
      "PixelBandwidth": 2840.0,
      "PixelRepresentation": 0,
      "PixelSpacing": [3.0, 3.0],
      "PositionReferenceIndicator": "",
      "ProtocolName": "func_run-01_task-movie",
      "RepetitionTime": 2000.0,
      "Rows": 560,
      "SAR": 0.08689227543471,
      "SamplesPerPixel": 1,
      "ScanOptions": "FS",
      "ScanningSequence": "EP",
      "SequenceName": "*epfid2d1_80",
      "SequenceVariant": "SK",
      "SeriesDescription": "func_run-01_task-movie",
      "SeriesNumber": 6,
      "SeriesTime": "212026.395000",
      "SliceLocation": -47.63063954291,
      "SliceThickness": 3.0,
      "SmallestImagePixelValue": 0,
      "SoftwareVersions": "syngo MR E11",
      "SpacingBetweenSlices": 3.0000000697524,
      "SpecificCharacterSet": "ISO_IR 100",
      "StudyID": "1",
      "StudyTime": "210601.729000",
      "TransmitCoilName": "Body",
      "VariableFlipAngleFlag": "N",
      "WindowCenterWidthExplanation": "Algo1",
      "dBdt": 0.0},
    "slices": {}
  },
  "time": {
    "samples": {
      "AcquisitionNumber": [1, 2, 3, 4, 5, 6, 7, 8, 9, 10, 11, 12, 13, 14, 15, 16, 17, 18, 19, 20, 21, 22, 23, 24, 25, 26, 27, 28, 29, 30, 31, 32, 33, 34, 35, 36, 37, 38, 39, 40, 41, 42, 43, 44, 45, 46, 47, 48, 49, 50, 51, 52, 53, 54, 55, 56, 57, 58, 59, 60, 61, 62, 63, 64, 65, 66, 67, 68, 69, 70, 71, 72, 73, 74, 75, 76, 77, 78, 79, 80, 81, 82, 83, 84, 85, 86, 87, 88, 89, 90, 91, 92, 93, 94, 95, 96, 97, 98, 99, 100, 101, 102, 103, 104, 105, 106, 107, 108, 109, 110, 111, 112, 113, 114, 115, 116, 117, 118, 119, 120, 121, 122, 123, 124, 125, 126, 127, 128, 129, 130, 131, 132, 133, 134, 135, 136, 137, 138, 139, 140, 141, 142, 143, 144, 145, 146, 147, 148, 149, 150, 151, 152, 153, 154, 155, 156, 157, 158, 159, 160, 161, 162, 163, 164, 165, 166, 167, 168, 169, 170, 171, 172, 173, 174, 175, 176, 177, 178, 179, 180, 181, 182, 183, 184, 185, 186, 187, 188, 189, 190, 191, 192, 193, 194, 195, 196, 197, 198, 199, 200, 201, 202, 203, 204, 205, 206, 207, 208, 209, 210, 211, 212, 213, 214, 215, 216, 217, 218, 219, 220, 221, 222, 223, 224, 225, 226, 227, 228, 229, 230, 231, 232, 233, 234, 235, 236, 237, 238, 239, 240, 241, 242, 243, 244, 245, 246, 247, 248, 249, 250, 251, 252, 253, 254, 255, 256, 257, 258, 259, 260, 261, 262, 263, 264, 265, 266, 267, 268, 269, 270, 271, 272, 273, 274, 275, 276, 277, 278, 279, 280, 281, 282, 283, 284, 285, 286, 287, 288, 289, 290, 291, 292, 293, 294, 295, 296, 297, 298, 299, 300, 301, 302, 303, 304, 305, 306, 307, 308, 309, 310, 311, 312, 313, 314, 315, 316, 317, 318, 319, 320, 321, 322, 323, 324, 325, 326, 327, 328, 329, 330, 331, 332, 333, 334, 335, 336, 337, 338, 339, 340, 341, 342, 343, 344, 345, 346, 347, 348, 349, 350, 351, 352, 353, 354, 355, 356, 357, 358, 359, 360, 361, 362, 363, 364, 365, 366, 367, 368, 369, 370, 371, 372, 373, 374, 375, 376, 377, 378, 379, 380, 381, 382, 383, 384, 385, 386, 387, 388, 389, 390, 391, 392, 393, 394, 395, 396, 397, 398, 399, 400, 401, 402, 403, 404, 405, 406, 407, 408, 409, 410, 411, 412, 413, 414, 415, 416, 417, 418, 419, 420, 421, 422, 423, 424, 425, 426, 427, 428, 429, 430, 431, 432, 433, 434, 435, 436, 437, 438, 439, 440, 441, 442, 443, 444, 445, 446, 447, 448, 449, 450, 451, 452, 453, 454, 455, 456, 457, 458, 459, 460, 461, 462, 463, 464, 465, 466, 467, 468, 469, 470, 471, 472, 473, 474, 475, 476, 477, 478, 479, 480, 481, 482, 483, 484, 485, 486, 487, 488, 489, 490, 491, 492, 493, 494, 495, 496, 497, 498, 499, 500, 501, 502, 503, 504, 505, 506, 507, 508, 509, 510, 511, 512, 513, 514, 515, 516, 517, 518, 519, 520, 521, 522, 523, 524, 525, 526, 527, 528, 529, 530, 531, 532, 533, 534, 535, 536, 537, 538, 539, 540, 541, 542, 543, 544, 545, 546, 547, 548, 549, 550, 551, 552, 553, 554, 555, 556, 557, 558, 559, 560, 561, 562, 563, 564, 565, 566, 567, 568, 569, 570, 571, 572, 573, 574, 575, 576, 577, 578, 579, 580, 581, 582, 583, 584, 585, 586, 587, 588, 589, 590, 591, 592, 593, 594, 595, 596, 597, 598, 599, 600, 601, 602, 603, 604, 605, 606, 607, 608, 609, 610, 611, 612, 613, 614, 615, 616, 617, 618, 619, 620, 621, 622, 623, 624, 625, 626, 627, 628, 629, 630, 631, 632, 633, 634, 635, 636, 637, 638, 639, 640, 641, 642, 643, 644, 645, 646, 647, 648, 649, 650, 651, 652, 653, 654, 655, 656, 657, 658, 659, 660, 661, 662, 663, 664, 665, 666, 667, 668, 669, 670, 671, 672, 673, 674, 675, 676, 677, 678, 679, 680, 681, 682, 683, 684, 685, 686, 687, 688, 689, 690, 691, 692, 693, 694, 695, 696, 697, 698, 699, 700, 701, 702, 703, 704, 705, 706, 707, 708, 709, 710, 711, 712, 713, 714, 715, 716, 717, 718, 719, 720, 721, 722, 723, 724, 725, 726, 727, 728, 729, 730, 731, 732, 733, 734, 735, 736, 737, 738, 739, 740, 741, 742, 743, 744, 745, 746, 747, 748, 749, 750, 751, 752, 753, 754, 755, 756, 757, 758, 759, 760, 761, 762, 763, 764, 765, 766, 767, 768, 769, 770, 771, 772, 773, 774, 775, 776, 777, 778, 779, 780, 781, 782, 783, 784, 785, 786, 787, 788, 789, 790, 791, 792, 793, 794, 795, 796, 797, 798, 799, 800, 801, 802, 803, 804, 805, 806, 807, 808, 809, 810, 811, 812, 813, 814, 815, 816, 817, 818, 819, 820, 821, 822, 823, 824, 825, 826, 827, 828, 829, 830, 831, 832, 833, 834, 835, 836, 837, 838, 839, 840, 841, 842, 843, 844, 845, 846, 847, 848, 849, 850, 851, 852, 853, 854, 855, 856, 857, 858, 859, 860, 861, 862, 863, 864, 865, 866, 867, 868, 869, 870, 871, 872, 873, 874, 875, 876, 877, 878, 879, 880, 881, 882, 883, 884, 885, 886, 887, 888, 889, 890, 891, 892, 893, 894, 895, 896, 897, 898, 899, 900, 901, 902, 903, 904, 905, 906, 907, 908, 909, 910, 911, 912, 913, 914, 915, 916, 917, 918, 919, 920, 921, 922, 923, 924, 925, 926, 927, 928, 929, 930, 931, 932, 933, 934, 935, 936, 937, 938, 939, 940, 941, 942, 943, 944, 945, 946, 947, 948, 949, 950, 951, 952, 953, 954, 955, 956, 957, 958, 959, 960, 961, 962, 963, 964, 965, 966, 967, 968, 969, 970, 971, 972, 973, 974, 975, 976, 977, 978, 979, 980, 981, 982, 983, 984, 985, 986, 987, 988, 989, 990, 991, 992, 993, 994, 995, 996, 997, 998, 999, 1000, 1001, 1002, 1003, 1004, 1005, 1006, 1007, 1008, 1009, 1010, 1011, 1012, 1013, 1014, 1015, 1016, 1017, 1018, 1019, 1020, 1021, 1022, 1023, 1024, 1025, 1026, 1027, 1028, 1029, 1030, 1031, 1032, 1033, 1034, 1035, 1036, 1037, 1038, 1039, 1040, 1041, 1042, 1043, 1044, 1045, 1046, 1047, 1048, 1049, 1050, 1051, 1052, 1053, 1054, 1055, 1056, 1057, 1058, 1059, 1060, 1061, 1062, 1063, 1064, 1065, 1066, 1067, 1068, 1069, 1070, 1071, 1072, 1073, 1074, 1075, 1076, 1077, 1078, 1079, 1080, 1081, 1082, 1083, 1084, 1085, 1086, 1087, 1088, 1089, 1090, 1091, 1092, 1093, 1094, 1095, 1096, 1097, 1098, 1099, 1100, 1101, 1102, 1103, 1104, 1105, 1106, 1107, 1108, 1109, 1110, 1111, 1112, 1113, 1114, 1115, 1116, 1117, 1118, 1119, 1120, 1121, 1122, 1123, 1124, 1125, 1126, 1127, 1128, 1129, 1130, 1131, 1132, 1133, 1134, 1135, 1136, 1137, 1138, 1139, 1140, 1141, 1142, 1143, 1144, 1145, 1146, 1147, 1148, 1149, 1150, 1151, 1152, 1153, 1154, 1155, 1156, 1157, 1158, 1159, 1160, 1161, 1162, 1163, 1164, 1165, 1166, 1167, 1168, 1169, 1170, 1171, 1172, 1173, 1174, 1175, 1176, 1177, 1178, 1179, 1180, 1181, 1182, 1183, 1184, 1185, 1186, 1187, 1188, 1189, 1190, 1191, 1192, 1193, 1194, 1195, 1196, 1197, 1198, 1199, 1200, 1201, 1202, 1203, 1204, 1205, 1206, 1207, 1208, 1209, 1210, 1211, 1212, 1213, 1214, 1215, 1216, 1217, 1218, 1219, 1220, 1221, 1222, 1223, 1224, 1225, 1226, 1227, 1228, 1229, 1230, 1231, 1232, 1233, 1234, 1235, 1236, 1237, 1238, 1239, 1240, 1241, 1242, 1243, 1244, 1245, 1246, 1247, 1248, 1249, 1250, 1251, 1252, 1253, 1254, 1255, 1256, 1257, 1258, 1259, 1260, 1261, 1262, 1263, 1264, 1265, 1266, 1267, 1268, 1269, 1270, 1271, 1272, 1273, 1274, 1275, 1276, 1277, 1278, 1279, 1280, 1281, 1282, 1283, 1284, 1285, 1286, 1287, 1288, 1289, 1290, 1291, 1292, 1293, 1294, 1295, 1296, 1297, 1298, 1299, 1300, 1301, 1302, 1303, 1304, 1305, 1306, 1307, 1308, 1309, 1310, 1311, 1312, 1313, 1314, 1315, 1316, 1317, 1318, 1319, 1320, 1321, 1322, 1323, 1324, 1325, 1326, 1327, 1328, 1329, 1330, 1331, 1332, 1333, 1334, 1335, 1336, 1337, 1338, 1339, 1340, 1341, 1342, 1343, 1344, 1345, 1346, 1347, 1348, 1349, 1350, 1351, 1352, 1353, 1354, 1355, 1356, 1357, 1358, 1359, 1360, 1361, 1362, 1363, 1364, 1365, 1366, 1367, 1368, 1369],
      "AcquisitionTime": ["212025.260000", "212027.260000", "212029.260000", "212031.260000", "212033.260000", "212035.260000", "212037.260000", "212039.260000", "212041.260000", "212043.260000", "212045.260000", "212047.260000", "212049.260000", "212051.260000", "212053.260000", "212055.260000", "212057.260000", "212059.260000", "212101.260000", "212103.260000", "212105.260000", "212107.260000", "212109.260000", "212111.260000", "212113.260000", "212115.260000", "212117.260000", "212119.260000", "212121.260000", "212123.260000", "212125.260000", "212127.260000", "212129.260000", "212131.260000", "212133.260000", "212135.260000", "212137.260000", "212139.260000", "212141.260000", "212143.260000", "212145.260000", "212147.260000", "212149.260000", "212151.260000", "212153.260000", "212155.260000", "212157.260000", "212159.260000", "212201.260000", "212203.260000", "212205.260000", "212207.260000", "212209.260000", "212211.260000", "212213.260000", "212215.260000", "212217.260000", "212219.260000", "212221.260000", "212223.260000", "212225.260000", "212227.260000", "212229.260000", "212231.260000", "212233.260000", "212235.260000", "212237.260000", "212239.260000", "212241.260000", "212243.260000", "212245.260000", "212247.260000", "212249.260000", "212251.260000", "212253.260000", "212255.260000", "212257.260000", "212259.260000", "212301.260000", "212303.260000", "212305.260000", "212307.260000", "212309.260000", "212311.260000", "212313.260000", "212315.260000", "212317.260000", "212319.260000", "212321.260000", "212323.260000", "212325.260000", "212327.260000", "212329.260000", "212331.260000", "212333.260000", "212335.260000", "212337.260000", "212339.260000", "212341.260000", "212343.260000", "212345.260000", "212347.260000", "212349.260000", "212351.260000", "212353.260000", "212355.260000", "212357.260000", "212359.260000", "212401.260000", "212403.260000", "212405.260000", "212407.260000", "212409.260000", "212411.260000", "212413.260000", "212415.260000", "212417.260000", "212419.260000", "212421.260000", "212423.260000", "212425.260000", "212427.260000", "212429.260000", "212431.260000", "212433.260000", "212435.260000", "212437.260000", "212439.260000", "212441.260000", "212443.260000", "212445.260000", "212447.260000", "212449.260000", "212451.260000", "212453.260000", "212455.260000", "212457.260000", "212459.260000", "212501.260000", "212503.260000", "212505.260000", "212507.260000", "212509.260000", "212511.260000", "212513.260000", "212515.260000", "212517.260000", "212519.260000", "212521.260000", "212523.260000", "212525.260000", "212527.260000", "212529.260000", "212531.260000", "212533.260000", "212535.260000", "212537.260000", "212539.260000", "212541.260000", "212543.260000", "212545.260000", "212547.260000", "212549.260000", "212551.260000", "212553.260000", "212555.260000", "212557.260000", "212559.260000", "212601.260000", "212603.260000", "212605.260000", "212607.260000", "212609.260000", "212611.260000", "212613.260000", "212615.260000", "212617.260000", "212619.260000", "212621.260000", "212623.260000", "212625.260000", "212627.260000", "212629.260000", "212631.260000", "212633.260000", "212635.260000", "212637.260000", "212639.260000", "212641.260000", "212643.260000", "212645.260000", "212647.260000", "212649.260000", "212651.260000", "212653.260000", "212655.260000", "212657.260000", "212659.260000", "212701.260000", "212703.260000", "212705.260000", "212707.260000", "212709.260000", "212711.260000", "212713.260000", "212715.260000", "212717.260000", "212719.260000", "212721.260000", "212723.260000", "212725.260000", "212727.260000", "212729.260000", "212731.260000", "212733.260000", "212735.260000", "212737.260000", "212739.260000", "212741.260000", "212743.260000", "212745.260000", "212747.260000", "212749.260000", "212751.260000", "212753.260000", "212755.260000", "212757.260000", "212759.260000", "212801.260000", "212803.260000", "212805.260000", "212807.260000", "212809.260000", "212811.260000", "212813.260000", "212815.260000", "212817.260000", "212819.260000", "212821.260000", "212823.260000", "212825.260000", "212827.260000", "212829.260000", "212831.260000", "212833.260000", "212835.260000", "212837.260000", "212839.260000", "212841.260000", "212843.260000", "212845.260000", "212847.260000", "212849.260000", "212851.260000", "212853.260000", "212855.260000", "212857.260000", "212859.260000", "212901.260000", "212903.260000", "212905.260000", "212907.260000", "212909.260000", "212911.260000", "212913.260000", "212915.260000", "212917.260000", "212919.260000", "212921.260000", "212923.260000", "212925.260000", "212927.260000", "212929.260000", "212931.260000", "212933.260000", "212935.260000", "212937.260000", "212939.260000", "212941.260000", "212943.260000", "212945.260000", "212947.260000", "212949.260000", "212951.260000", "212953.260000", "212955.260000", "212957.260000", "212959.260000", "213001.260000", "213003.260000", "213005.260000", "213007.260000", "213009.260000", "213011.260000", "213013.260000", "213015.260000", "213017.260000", "213019.260000", "213021.260000", "213023.260000", "213025.260000", "213027.260000", "213029.260000", "213031.260000", "213033.260000", "213035.260000", "213037.260000", "213039.260000", "213041.260000", "213043.260000", "213045.260000", "213047.260000", "213049.260000", "213051.260000", "213053.260000", "213055.260000", "213057.260000", "213059.260000", "213101.260000", "213103.260000", "213105.260000", "213107.260000", "213109.260000", "213111.260000", "213113.260000", "213115.260000", "213117.260000", "213119.260000", "213121.260000", "213123.260000", "213125.260000", "213127.260000", "213129.260000", "213131.260000", "213133.260000", "213135.260000", "213137.260000", "213139.260000", "213141.260000", "213143.260000", "213145.260000", "213147.260000", "213149.260000", "213151.260000", "213153.260000", "213155.260000", "213157.260000", "213159.260000", "213201.260000", "213203.260000", "213205.260000", "213207.260000", "213209.260000", "213211.260000", "213213.260000", "213215.260000", "213217.260000", "213219.260000", "213221.260000", "213223.260000", "213225.260000", "213227.260000", "213229.260000", "213231.260000", "213233.260000", "213235.260000", "213237.260000", "213239.260000", "213241.260000", "213243.260000", "213245.260000", "213247.260000", "213249.260000", "213251.260000", "213253.260000", "213255.260000", "213257.260000", "213259.260000", "213301.260000", "213303.260000", "213305.260000", "213307.260000", "213309.260000", "213311.260000", "213313.260000", "213315.260000", "213317.260000", "213319.260000", "213321.260000", "213323.260000", "213325.260000", "213327.260000", "213329.260000", "213331.260000", "213333.260000", "213335.260000", "213337.260000", "213339.260000", "213341.260000", "213343.260000", "213345.260000", "213347.260000", "213349.260000", "213351.260000", "213353.260000", "213355.260000", "213357.260000", "213359.260000", "213401.260000", "213403.260000", "213405.260000", "213407.260000", "213409.260000", "213411.260000", "213413.260000", "213415.260000", "213417.260000", "213419.260000", "213421.260000", "213423.260000", "213425.260000", "213427.260000", "213429.260000", "213431.260000", "213433.260000", "213435.260000", "213437.260000", "213439.260000", "213441.260000", "213443.260000", "213445.260000", "213447.260000", "213449.260000", "213451.260000", "213453.260000", "213455.260000", "213457.260000", "213459.260000", "213501.260000", "213503.260000", "213505.260000", "213507.260000", "213509.260000", "213511.260000", "213513.260000", "213515.260000", "213517.260000", "213519.260000", "213521.260000", "213523.260000", "213525.260000", "213527.260000", "213529.260000", "213531.260000", "213533.260000", "213535.260000", "213537.260000", "213539.260000", "213541.260000", "213543.260000", "213545.260000", "213547.260000", "213549.260000", "213551.260000", "213553.260000", "213555.260000", "213557.260000", "213559.260000", "213601.260000", "213603.260000", "213605.260000", "213607.260000", "213609.260000", "213611.260000", "213613.260000", "213615.260000", "213617.260000", "213619.260000", "213621.260000", "213623.260000", "213625.260000", "213627.260000", "213629.260000", "213631.260000", "213633.260000", "213635.260000", "213637.260000", "213639.260000", "213641.260000", "213643.260000", "213645.260000", "213647.260000", "213649.260000", "213651.260000", "213653.260000", "213655.260000", "213657.260000", "213659.260000", "213701.260000", "213703.260000", "213705.260000", "213707.260000", "213709.260000", "213711.260000", "213713.260000", "213715.260000", "213717.260000", "213719.260000", "213721.260000", "213723.260000", "213725.260000", "213727.260000", "213729.260000", "213731.260000", "213733.260000", "213735.260000", "213737.260000", "213739.260000", "213741.260000", "213743.260000", "213745.260000", "213747.260000", "213749.260000", "213751.260000", "213753.260000", "213755.260000", "213757.260000", "213759.260000", "213801.260000", "213803.260000", "213805.260000", "213807.260000", "213809.260000", "213811.260000", "213813.260000", "213815.260000", "213817.260000", "213819.260000", "213821.260000", "213823.260000", "213825.260000", "213827.260000", "213829.260000", "213831.260000", "213833.260000", "213835.260000", "213837.260000", "213839.260000", "213841.260000", "213843.260000", "213845.260000", "213847.260000", "213849.260000", "213851.260000", "213853.260000", "213855.260000", "213857.260000", "213859.260000", "213901.260000", "213903.260000", "213905.260000", "213907.260000", "213909.260000", "213911.260000", "213913.260000", "213915.260000", "213917.260000", "213919.260000", "213921.260000", "213923.260000", "213925.260000", "213927.260000", "213929.260000", "213931.260000", "213933.260000", "213935.260000", "213937.260000", "213939.260000", "213941.260000", "213943.260000", "213945.260000", "213947.260000", "213949.260000", "213951.260000", "213953.260000", "213955.260000", "213957.260000", "213959.260000", "214001.260000", "214003.260000", "214005.260000", "214007.260000", "214009.260000", "214011.260000", "214013.260000", "214015.260000", "214017.260000", "214019.260000", "214021.260000", "214023.260000", "214025.260000", "214027.260000", "214029.260000", "214031.260000", "214033.260000", "214035.260000", "214037.260000", "214039.260000", "214041.260000", "214043.260000", "214045.260000", "214047.260000", "214049.260000", "214051.260000", "214053.260000", "214055.260000", "214057.260000", "214059.260000", "214101.260000", "214103.260000", "214105.260000", "214107.260000", "214109.260000", "214111.260000", "214113.260000", "214115.260000", "214117.260000", "214119.260000", "214121.260000", "214123.260000", "214125.260000", "214127.260000", "214129.260000", "214131.260000", "214133.260000", "214135.260000", "214137.260000", "214139.260000", "214141.260000", "214143.260000", "214145.260000", "214147.260000", "214149.260000", "214151.260000", "214153.260000", "214155.260000", "214157.260000", "214159.260000", "214201.260000", "214203.260000", "214205.260000", "214207.260000", "214209.260000", "214211.260000", "214213.260000", "214215.260000", "214217.260000", "214219.260000", "214221.260000", "214223.260000", "214225.260000", "214227.260000", "214229.260000", "214231.260000", "214233.260000", "214235.260000", "214237.260000", "214239.260000", "214241.260000", "214243.260000", "214245.260000", "214247.260000", "214249.260000", "214251.260000", "214253.260000", "214255.260000", "214257.260000", "214259.260000", "214301.260000", "214303.260000", "214305.260000", "214307.260000", "214309.260000", "214311.260000", "214313.260000", "214315.260000", "214317.260000", "214319.260000", "214321.260000", "214323.260000", "214325.260000", "214327.260000", "214329.260000", "214331.260000", "214333.260000", "214335.260000", "214337.260000", "214339.260000", "214341.260000", "214343.260000", "214345.260000", "214347.260000", "214349.260000", "214351.260000", "214353.260000", "214355.260000", "214357.260000", "214359.260000", "214401.260000", "214403.260000", "214405.260000", "214407.260000", "214409.260000", "214411.260000", "214413.260000", "214415.260000", "214417.260000", "214419.260000", "214421.260000", "214423.260000", "214425.260000", "214427.260000", "214429.260000", "214431.260000", "214433.260000", "214435.260000", "214437.260000", "214439.260000", "214441.260000", "214443.260000", "214445.260000", "214447.260000", "214449.260000", "214451.260000", "214453.260000", "214455.260000", "214457.260000", "214459.260000", "214501.260000", "214503.260000", "214505.260000", "214507.260000", "214509.260000", "214511.260000", "214513.260000", "214515.260000", "214517.260000", "214519.260000", "214521.260000", "214523.260000", "214525.260000", "214527.260000", "214529.260000", "214531.260000", "214533.260000", "214535.260000", "214537.260000", "214539.260000", "214541.260000", "214543.260000", "214545.260000", "214547.260000", "214549.260000", "214551.260000", "214553.260000", "214555.260000", "214557.260000", "214559.260000", "214601.260000", "214603.260000", "214605.260000", "214607.260000", "214609.260000", "214611.260000", "214613.260000", "214615.260000", "214617.260000", "214619.260000", "214621.260000", "214623.260000", "214625.260000", "214627.260000", "214629.260000", "214631.260000", "214633.260000", "214635.260000", "214637.260000", "214639.260000", "214641.260000", "214643.260000", "214645.260000", "214647.260000", "214649.260000", "214651.260000", "214653.260000", "214655.260000", "214657.260000", "214659.260000", "214701.260000", "214703.260000", "214705.260000", "214707.260000", "214709.260000", "214711.260000", "214713.260000", "214715.260000", "214717.260000", "214719.260000", "214721.260000", "214723.260000", "214725.260000", "214727.260000", "214729.260000", "214731.260000", "214733.260000", "214735.260000", "214737.260000", "214739.260000", "214741.260000", "214743.260000", "214745.260000", "214747.260000", "214749.260000", "214751.260000", "214753.260000", "214755.260000", "214757.260000", "214759.260000", "214801.260000", "214803.260000", "214805.260000", "214807.260000", "214809.260000", "214811.260000", "214813.260000", "214815.260000", "214817.260000", "214819.260000", "214821.260000", "214823.260000", "214825.260000", "214827.260000", "214829.260000", "214831.260000", "214833.260000", "214835.260000", "214837.260000", "214839.260000", "214841.260000", "214843.260000", "214845.260000", "214847.260000", "214849.260000", "214851.260000", "214853.260000", "214855.260000", "214857.260000", "214859.260000", "214901.260000", "214903.260000", "214905.260000", "214907.260000", "214909.260000", "214911.260000", "214913.260000", "214915.260000", "214917.260000", "214919.260000", "214921.260000", "214923.260000", "214925.260000", "214927.260000", "214929.260000", "214931.260000", "214933.260000", "214935.260000", "214937.260000", "214939.260000", "214941.260000", "214943.260000", "214945.260000", "214947.260000", "214949.260000", "214951.260000", "214953.260000", "214955.260000", "214957.260000", "214959.260000", "215001.260000", "215003.260000", "215005.260000", "215007.260000", "215009.260000", "215011.260000", "215013.260000", "215015.260000", "215017.260000", "215019.260000", "215021.260000", "215023.260000", "215025.260000", "215027.260000", "215029.260000", "215031.260000", "215033.260000", "215035.260000", "215037.260000", "215039.260000", "215041.260000", "215043.260000", "215045.260000", "215047.260000", "215049.260000", "215051.260000", "215053.260000", "215055.260000", "215057.260000", "215059.260000", "215101.260000", "215103.260000", "215105.260000", "215107.260000", "215109.260000", "215111.260000", "215113.260000", "215115.260000", "215117.260000", "215119.260000", "215121.260000", "215123.260000", "215125.260000", "215127.260000", "215129.260000", "215131.260000", "215133.260000", "215135.260000", "215137.260000", "215139.260000", "215141.260000", "215143.260000", "215145.260000", "215147.260000", "215149.260000", "215151.260000", "215153.260000", "215155.260000", "215157.260000", "215159.260000", "215201.260000", "215203.260000", "215205.260000", "215207.260000", "215209.260000", "215211.260000", "215213.260000", "215215.260000", "215217.260000", "215219.260000", "215221.260000", "215223.260000", "215225.260000", "215227.260000", "215229.260000", "215231.260000", "215233.260000", "215235.260000", "215237.260000", "215239.260000", "215241.260000", "215243.260000", "215245.260000", "215247.260000", "215249.260000", "215251.260000", "215253.260000", "215255.260000", "215257.260000", "215259.260000", "215301.260000", "215303.260000", "215305.260000", "215307.260000", "215309.260000", "215311.260000", "215313.260000", "215315.260000", "215317.260000", "215319.260000", "215321.260000", "215323.260000", "215325.260000", "215327.260000", "215329.260000", "215331.260000", "215333.260000", "215335.260000", "215337.260000", "215339.260000", "215341.260000", "215343.260000", "215345.260000", "215347.260000", "215349.260000", "215351.260000", "215353.260000", "215355.260000", "215357.260000", "215359.260000", "215401.260000", "215403.260000", "215405.260000", "215407.260000", "215409.260000", "215411.260000", "215413.260000", "215415.260000", "215417.260000", "215419.260000", "215421.260000", "215423.260000", "215425.260000", "215427.260000", "215429.260000", "215431.260000", "215433.260000", "215435.260000", "215437.260000", "215439.260000", "215441.260000", "215443.260000", "215445.260000", "215447.260000", "215449.260000", "215451.260000", "215453.260000", "215455.260000", "215457.260000", "215459.260000", "215501.260000", "215503.260000", "215505.260000", "215507.260000", "215509.260000", "215511.260000", "215513.260000", "215515.260000", "215517.260000", "215519.260000", "215521.260000", "215523.260000", "215525.260000", "215527.260000", "215529.260000", "215531.260000", "215533.260000", "215535.260000", "215537.260000", "215539.260000", "215541.260000", "215543.260000", "215545.260000", "215547.260000", "215549.2600